Time,Velocity,Pressure,Gamma,Tau
4880.0897,0.00135217255473034,777799.347161223,509.757043719189,5185.32898107482
4880.0997,0.00135226460624729,778857.680878463,509.791746323517,5192.38453918975
4880.1097,0.0013523674706438,779915.086764435,509.830525287404,5199.4339117629
4880.1197,0.00135248114791986,780971.564819142,509.873380610848,5206.47709879428
4880.12969,0.00135260563807548,782027.115042583,509.920312293849,5213.51410028389
4880.13969,0.00135274094111066,783081.737434758,509.971320336408,5220.54491623172
4880.14969,0.0013528870570254,784135.431995667,510.026404738525,5227.56954663778
4880.15969,0.00135304398581969,785188.198725312,510.085565500198,5234.58799150208
4880.16968,0.00135321172749354,786240.037623689,510.148802621429,5241.60025082459
4880.17968,0.00135339028204694,787290.948690801,510.216116102218,5248.60632460534
4880.18968,0.0013535796494799,788340.931926647,510.287505942564,5255.60621284432
4880.19968,0.00135377982979242,789389.987331227,510.362972142468,5262.59991554152
4880.20967,0.00135399082298449,790438.114904542,510.44251470193,5269.58743269695
4880.21967,0.00135421262905612,791485.31464659,510.526133620948,5276.5687643106
4880.22967,0.00135444524800731,792531.586557372,510.613828899524,5283.54391038248
4880.23967,0.00135468867983805,793576.930636889,510.705600537657,5290.5128709126
4880.24966,0.00135494292454835,794621.34688514,510.801448535349,5297.47564590093
4880.25966,0.00135520798213821,795664.835302124,510.901372892597,5304.4322353475
4880.26966,0.00135548385260762,796707.395887844,511.005373609402,5311.38263925229
4880.27965,0.00135577053595659,797749.028642297,511.113450685766,5318.32685761532
4880.28965,0.00135606803218511,798789.733565484,511.225604121686,5325.26489043656
4880.29965,0.0013563763412932,799829.510657406,511.341833917164,5332.19673771604
4880.30965,0.00135669546328083,800868.359918061,511.4621400722,5339.12239945374
4880.31964,0.00135702539814803,801906.281347451,511.586522586794,5346.04187564967
4880.32964,0.00135736614589478,802943.274945574,511.714981460944,5352.95516630383
4880.33964,0.00135771770652109,803979.340712433,511.847516694653,5359.86227141622
4880.34964,0.00135808008002695,805014.478648025,511.984128287918,5366.76319098683
4880.35963,0.00135845326641237,806048.688752351,512.124816240741,5373.65792501567
4880.36963,0.00135883726567735,807081.971025411,512.269580553121,5380.54647350274
4880.37963,0.00135923207782189,808114.325467206,512.418421225059,5387.42883644804
4880.38963,0.00135963770284598,809145.752077735,512.571338256555,5394.30501385157
4880.39962,0.00136005414074962,810176.250856998,512.728331647607,5401.17500571332
4880.40962,0.00136048139153283,811205.821804995,512.889401398218,5408.0388120333
4880.41962,0.00136091945519559,812234.464921725,513.054547508385,5414.8964328115
4880.42962,0.0013613683317379,813262.18020719,513.223769978111,5421.74786804794
4880.43961,0.00136182802115978,814288.967661389,513.397068807393,5428.5931177426
4880.44961,0.0013622985234612,815314.827284323,513.574443996233,5435.43218189549
4880.45961,0.00136277983864219,816339.75907599,513.75589554463,5442.2650605066
4880.46961,0.00136327196670273,817363.763036393,513.941423452586,5449.09175357596
4880.4796,0.00136377490764283,818386.839165529,514.131027720098,5455.91226110352
4880.4896,0.00136428866146249,819408.987463399,514.324708347168,5462.72658308933
4880.4996,0.0013648132281617,820430.207930003,514.522465333795,5469.53471953335
4880.5096,0.00136534860774046,821450.500565342,514.72429867998,5476.33667043561
4880.51959,0.00136589480019879,822469.865369413,514.930208385722,5483.13243579609
4880.52959,0.00136645180553667,823488.30234222,515.140194451022,5489.9220156148
4880.53959,0.00136701962375411,824505.811483761,515.354256875879,5496.70540989174
4880.54958,0.0013675982548511,825522.392794035,515.572395660294,5503.4826186269
4880.55958,0.00136818769882765,826538.046273045,515.794610804266,5510.2536418203
4880.56958,0.00136878795568376,827552.771920787,516.020902307795,5517.01847947192
4880.57958,0.00136939902541943,828566.569737264,516.251270170883,5523.77713158176
4880.58957,0.00137002090803465,829579.439722475,516.485714393527,5530.52959814983
4880.59957,0.00137065360352942,830591.381876422,516.724234975729,5537.27587917614
4880.60957,0.00137129711190376,831602.396199101,516.966831917489,5544.01597466067
4880.61957,0.00137195143315764,832612.482690514,517.213505218805,5550.74988460343
4880.62956,0.00137261656729109,833621.641350662,517.46425487968,5557.47760900442
4880.63956,0.00137329251430409,834629.872179545,517.719080900111,5564.19914786364
4880.64956,0.00137397927419665,835637.17517716,517.9779832801,5570.91450118107
4880.65956,0.00137467684696877,836643.550343511,518.240962019647,5577.62366895674
4880.66955,0.00137538523262044,837648.997678596,518.508017118751,5584.32665119064
4880.67955,0.00137610443115167,838653.517182413,518.779148577413,5591.02344788276
4880.68955,0.00137683444256245,839657.108854967,519.054356395632,5597.71405903311
4880.69955,0.00137757526685279,840659.772696253,519.333640573409,5604.39848464169
4880.70954,0.00137832690402269,841661.508706274,519.617001110743,5611.07672470849
4880.71954,0.00137908935407215,842662.316885029,519.904438007633,5617.74877923353
4880.72954,0.00137986261700116,843662.197232518,520.195951264083,5624.41464821679
4880.73954,0.00138064669280972,844661.149748742,520.491540880089,5631.07433165828
4880.74953,0.00138144158149785,845659.174433699,520.791206855652,5637.72782955799
4880.75953,0.00138224728306553,846656.271287391,521.094949190774,5644.37514191594
4880.76953,0.00138306379751277,847652.440309816,521.402767885452,5651.01626873211
4880.77952,0.00138389112483956,848647.681500976,521.714662939689,5657.65121000651
4880.78952,0.00138472926504591,849641.994860871,522.030634353482,5664.27996573914
4880.79952,0.00138557821813182,850635.380389498,522.350682126833,5670.90253592998
4880.80952,0.00138643798409728,851627.838086861,522.674806259742,5677.51892057907
4880.81951,0.0013873085629423,852619.367952957,523.003006752209,5684.12911968638
4880.82951,0.00138818995466687,853609.969987787,523.335283604231,5690.73313325191
4880.83951,0.00138908215927101,854599.644191352,523.671636815813,5697.33096127568
4880.84951,0.00138998517675469,855588.390563651,524.012066386951,5703.92260375767
4880.8595,0.00139089900711794,856576.209104683,524.356572317647,5710.50806069789
4880.8695,0.00139182365036074,857563.099814451,524.7051546079,5717.08733209634
4880.8795,0.0013927591064831,858549.062692953,525.05781325771,5723.66041795302
4880.8895,0.00139370537548501,859534.097740188,525.414548267078,5730.22731826792
4880.89949,0.00139466245736648,860518.204956157,525.775359636004,5736.78803304105
4880.90949,0.00139563035212751,861501.38434086,526.140247364487,5743.3425622724
4880.91949,0.0013966090597681,862483.635894298,526.509211452528,5749.89090596199
4880.92949,0.00139759858028824,863464.959616469,526.882251900126,5756.4330641098
4880.93948,0.00139859891368793,864445.355507376,527.259368707281,5762.96903671584
4880.94948,0.00139961005996719,865424.823567015,527.640561873994,5769.4988237801
4880.95948,0.001400632019126,866403.363795391,528.025831400264,5776.02242530261
4880.96948,0.00140166479116436,867380.976192499,528.415177286092,5782.53984128333
4880.97947,0.00140270837608229,868357.660758341,528.808599531478,5789.05107172228
4880.98947,0.00140376277387977,869333.417492918,529.20609813642,5795.55611661945
4880.99947,0.0014048279845568,870308.246396228,529.607673100921,5802.05497597486
4881.00946,0.00140590400811339,871282.147468273,530.013324424978,5808.54764978849
4881.01946,0.00140699084454954,872255.120709053,530.423052108593,5815.03413806035
4881.02946,0.00140808849386525,873227.166118566,530.836856151766,5821.51444079044
4881.03946,0.00140919695606051,874198.283696813,531.254736554496,5827.98855797876
4881.04945,0.00141031623113533,875168.473443795,531.676693316784,5834.4564896253
4881.05945,0.00141144631908971,876137.73535951,532.102726438629,5840.91823573007
4881.06945,0.00141258721992364,877106.06944396,532.532835920031,5847.37379629307
4881.07945,0.00141373893363712,878073.475697144,532.96702176099,5853.82317131429
4881.08944,0.00141490146023017,879039.954119061,533.405283961508,5860.26636079374
4881.09944,0.00141607479970277,880005.504709714,533.847622521583,5866.70336473142
4881.10944,0.00141725895205493,880970.1274691,534.294037441215,5873.13418312733
4881.11944,0.00141845391728664,881933.822397221,534.744528720405,5879.55881598147
4881.12943,0.00141965969539791,882896.589494075,535.199096359152,5885.97726329384
4881.13943,0.00142087628638874,883858.428759664,535.657740357456,5892.38952506443
4881.14943,0.00142210369025912,884819.340193986,536.120460715319,5898.79560129324
4881.15943,0.00142334190700906,885779.323797043,536.587257432739,5905.19549198028
4881.16942,0.00142459093663856,886738.379568834,537.058130509715,5911.58919712556
4881.17942,0.00142585077914761,887696.50750936,537.533079946249,5917.97671672907
4881.18942,0.00142712143453622,888653.707618619,538.012105742341,5924.3580507908
4881.19942,0.00142840290280438,889609.979896612,538.495207897991,5930.73319931075
4881.20941,0.00142969518395211,890565.324343339,538.982386413198,5937.10216228893
4881.21941,0.00143099827797939,891519.740958802,539.473641287962,5943.46493972535
4881.22941,0.00143231218488622,892473.229742997,539.968972522283,5949.82153161998
4881.23941,0.00143363690467261,893425.790695927,540.468380116162,5956.17193797284
4881.2494,0.00143497243733856,894377.423817592,540.971864069599,5962.51615878394
4881.2594,0.00143631878288406,895328.129107989,541.479424382593,5968.85419405326
4881.2694,0.00143767594130913,896277.906567122,541.991061055145,5975.18604378082
4881.27939,0.00143904391261374,897226.756194989,542.506774087254,5981.51170796659
4881.28939,0.00144042269679792,898174.677991589,543.02656347892,5987.83118661059
4881.29939,0.00144181229386165,899121.671956924,543.550429230144,5994.14447971282
4881.30939,0.00144321270380493,900067.738090993,544.078371340925,6000.45158727329
4881.31938,0.00144462392662778,901012.876393795,544.610389811264,6006.75250929197
4881.32938,0.00144604596233018,901957.086865333,545.14648464116,6013.04724576889
4881.33938,0.00144747881091213,902900.369505604,545.686655830614,6019.33579670403
4881.34938,0.00144892247237365,903842.724314609,546.230903379625,6025.61816209739
4881.35937,0.00145037694671472,904784.15129235,546.779227288194,6031.894341949
4881.36937,0.00145184223393534,905724.650438823,547.33162755632,6038.16433625882
4881.37937,0.00145331833403553,906664.221754031,547.888104184004,6044.42814502687
4881.38937,0.00145480524701527,907602.865237974,548.448657171245,6050.68576825316
4881.39936,0.00145630297287456,908540.580890649,549.013286518043,6056.93720593766
4881.40936,0.00145781151161341,909477.368712059,549.5819922244,6063.1824580804
4881.41936,0.00145933086323182,910413.228702203,550.154774290313,6069.42152468136
4881.42936,0.00146086102772979,911348.160861082,550.731632715784,6075.65440574055
4881.43935,0.00146240200510731,912282.165188695,551.312567500811,6081.88110125797
4881.44935,0.00146395379536439,913215.241685042,551.897578645398,6088.10161123361
4881.45935,0.00146551639850102,914147.390350123,552.48666614954,6094.31593566749
4881.46935,0.00146708981451721,915078.611183938,553.079830013241,6100.52407455959
4881.47934,0.00146867404341296,916008.904186487,553.6770702365,6106.72602790991
4881.48934,0.00147026908518826,916938.26935777,554.278386819315,6112.92179571847
4881.49934,0.00147187493984312,917866.706697787,554.883779761688,6119.11137798525
4881.50933,0.00147349160737754,918794.216206539,555.493249063618,6125.29477471026
4881.51933,0.00147511908779151,919720.797884025,556.106794725107,6131.4719858935
4881.52933,0.00147675738108504,920646.451730245,556.724416746151,6137.64301153496
4881.53933,0.00147840648725813,921571.177745199,557.346115126755,6143.80785163466
4881.54932,0.00148006640631077,922494.975928885,557.971889866915,6149.96650619257
4881.55932,0.00148173713824297,923417.846281309,558.601740966633,6156.11897520873
4881.56932,0.00148341868305473,924339.788802465,559.235668425909,6162.2652586831
4881.57932,0.00148511104074604,925260.803492355,559.873672244741,6168.4053566157
4881.58931,0.00148681421131691,926180.89035098,560.515752423131,6174.53926900653
4881.59931,0.00148852819476733,927100.049378339,561.161908961079,6180.66699585559
4881.60931,0.00149025299109731,928018.280574432,561.812141858584,6186.78853716288
4881.61931,0.00149198860030685,928935.583939259,562.466451115646,6192.90389292839
4881.6293,0.00149373502239594,929851.959472821,563.124836732266,6199.01306315214
4881.6393,0.0014954922573646,930767.407175117,563.787298708443,6205.11604783411
4881.6493,0.0014972603052128,931681.927046145,564.453837044179,6211.2128469743
4881.6593,0.00149903916594057,932595.519085908,565.124451739471,6217.30346057272
4881.66929,0.00150082883954789,933508.183294407,565.799142794321,6223.38788862938
4881.67929,0.00150262932603476,934419.919671639,566.477910208728,6229.46613114426
4881.68929,0.0015044406254012,935330.728217604,567.160753982693,6235.53818811736
4881.69929,0.00150626273764719,936240.608932304,567.847674116215,6241.60405954869
4881.70928,0.00150809566277274,937149.561815738,568.538670609295,6247.66374543826
4881.71928,0.00150993940077784,938057.586867907,569.233743461931,6253.71724578605
4881.72928,0.0015117939516625,938964.684088809,569.932892674126,6259.76456059206
4881.73927,0.00151365931542671,939870.853478446,570.636118245878,6265.80568985631
4881.74927,0.00151553549207048,940776.095036816,571.343420177187,6271.84063357878
4881.75927,0.00151742248159381,941680.408763921,572.054798468054,6277.86939175948
4881.76927,0.0015193202839967,942583.794659761,572.770253118479,6283.89196439841
4881.77926,0.00152122889927914,943486.252724334,573.48978412846,6289.90835149556
4881.78926,0.00152314832744114,944387.782957641,574.213391498001,6295.91855305094
4881.79926,0.0015250785684827,945288.385359682,574.941075227097,6301.92256906455
4881.80926,0.0015270196224038,946188.059930458,575.67283531575,6307.92039953639
4881.81925,0.00152897148920447,947086.806669967,576.408671763963,6313.91204446645
4881.82925,0.0015309341688847,947984.625578211,577.148584571732,6319.89750385474
4881.83925,0.00153290766144448,948881.51665519,577.892573739059,6325.87677770127
4881.84925,0.00153489196688382,949777.479900902,578.640639265942,6331.84986600601
4881.85924,0.00153688708520271,950672.515315349,579.392781152383,6337.81676876899
4881.86924,0.00153889301640116,951566.622898528,580.148999398382,6343.77748599019
4881.87924,0.00154090976047917,952459.802650443,580.909294003939,6349.73201766962
4881.88924,0.00154293731743673,953352.054571092,581.673664969054,6355.68036380728
4881.89923,0.00154497568727385,954243.378660474,582.442112293724,6361.62252440316
4881.90923,0.00154702486999053,955133.774918592,583.214635977953,6367.55849945728
4881.91923,0.00154908486558676,956023.243345442,583.991236021739,6373.48828896962
4881.92923,0.00155115567406255,956911.783941027,584.771912425083,6379.41189294018
4881.93922,0.00155323729541789,957799.396705347,585.556665187984,6385.32931136898
4881.94922,0.0015553297296528,958686.0816384,586.345494310443,6391.240544256
4881.95922,0.00155743297676726,959571.838740188,587.138399792459,6397.14559160125
4881.96922,0.00155954703676127,960456.66801071,587.935381634032,6403.04445340473
4881.97921,0.00156167190963484,961340.569449965,588.736439835163,6408.93712966644
4881.98921,0.00156380759538797,962223.543057955,589.541574395851,6414.82362038637
4881.99921,0.00156595409402065,963105.588834679,590.350785316097,6420.70392556453
4882.0092,0.00156811140553289,963986.706780137,591.164072595901,6426.57804520092
4882.0192,0.00157027952992469,964866.89689433,591.981436235262,6432.44597929553
4882.0292,0.00157245846719604,965746.159177257,592.802876234179,6438.30772784838
4882.0392,0.00157464821734696,966624.493628917,593.628392592655,6444.16329085945
4882.04919,0.00157684878037742,967501.900249312,594.457985310689,6450.01266832875
4882.05919,0.00157906015628745,968378.379038441,595.29165438828,6455.85586025627
4882.06919,0.00158128234507703,969253.929996304,596.129399825428,6461.69286664202
4882.07919,0.00158351534674616,970128.553122901,596.971221622133,6467.52368748601
4882.08918,0.00158575916129486,971002.248418232,597.817119778396,6473.34832278821
4882.09918,0.00158801378872311,971875.015882298,598.667094294217,6479.16677254866
4882.10918,0.00159027922903091,972746.855515097,599.521145169594,6484.97903676731
4882.11918,0.00159255548221827,973617.767316631,600.379272404529,6490.78511544421
4882.12917,0.00159484254828519,974487.751286899,601.241475999023,6496.58500857933
4882.13917,0.00159714042723167,975356.807425901,602.107755953073,6502.37871617267
4882.14917,0.0015994491190577,976224.935733637,602.97811226668,6508.16623822425
4882.15917,0.00160176862376329,977092.136210107,603.852544939846,6513.94757473405
4882.16916,0.00160409894134843,977958.408855312,604.731053972568,6519.72272570208
4882.17916,0.00160644007181313,978823.75366925,605.613639364848,6525.49169112834
4882.18916,0.00160879201515739,979688.170651922,606.500301116686,6531.25447101281
4882.19916,0.00161115477138121,980551.659803329,607.391039228081,6537.01106535553
4882.20915,0.00161352834048458,981414.22112347,608.285853699033,6542.76147415647
4882.21915,0.0016159127224675,982275.854612345,609.184744529543,6548.50569741564
4882.22915,0.00161830791732999,983136.560269955,610.087711719611,6554.24373513303
4882.23914,0.00162071392507203,983996.338096298,610.994755269235,6559.97558730865
4882.24914,0.00162313074569362,984855.188091376,611.905875178418,6565.7012539425
4882.25914,0.00162555837919478,985713.110255187,612.821071447157,6571.42073503458
4882.26914,0.00162799682557549,986570.104587732,613.740344075455,6577.13403058488
4882.27913,0.00163044608483575,987426.171089013,614.663693063309,6582.84114059342
4882.28913,0.00163290615697558,988281.309759026,615.591118410721,6588.54206506018
4882.29913,0.00163537704199496,989135.520597775,616.522620117692,6594.23680398517
4882.30913,0.00163785873989389,989988.803605257,617.458198184218,6599.92535736838
4882.31912,0.00164035125067238,990841.158781473,618.397852610303,6605.60772520982
4882.32912,0.00164285457433043,991692.586126424,619.341583395945,6611.2839075095
4882.33912,0.00164536871086804,992543.085640108,620.289390541143,6616.95390426739
4882.34912,0.0016478936602852,993392.657322527,621.241274045901,6622.61771548351
4882.35911,0.00165042942258192,994241.301173679,622.197233910215,6628.27534115786
4882.36911,0.00165297599775819,995089.017193567,623.157270134086,6633.92678129045
4882.37911,0.00165553338581402,995935.805382188,624.121382717516,6639.57203588125
4882.38911,0.00165810158674941,996781.665739544,625.089571660503,6645.21110493029
4882.3991,0.00166068060056435,997626.598265632,626.061836963047,6650.84398843755
4882.4091,0.00166327042725885,998470.602960456,627.038178625149,6656.47068640304
4882.4191,0.00166587106683291,999313.679824014,628.018596646807,6662.09119882676
4882.4291,0.00166848251928652,1000155.82885631,629.003091028024,6667.70552570871
4882.43909,0.0016711047846197,1000997.05005733,629.991661768799,6673.31366704888
4882.44909,0.00167373786283242,1001837.34342709,630.984308869129,6678.91562284729
4882.45909,0.0016763817539247,1002676.70896559,631.981032329019,6684.51139310391
4882.46908,0.00167903645789654,1003515.14667281,632.981832148465,6690.10097781877
4882.47908,0.00168170197474794,1004352.65654878,633.986708327468,6695.68437699185
4882.48908,0.00168437830447889,1005189.23859347,634.99566086603,6701.26159062316
4882.49908,0.0016870654470894,1006024.8928069,636.008689764148,6706.8326187127
4882.50907,0.00168976340257947,1006859.61918907,637.025795021825,6712.39746126046
4882.51907,0.00169247217094909,1007693.41773997,638.046976639058,6717.95611826645
4882.52907,0.00169519175219827,1008526.2884596,639.07223461585,6723.50858973068
