Time,Velocity,Pressure,Gamma,Tau
5515.46432,0.000489548384390391,789224.340093155,184.555392957313,5261.49560062103
5515.47431,0.000489266219121952,789731.664953572,184.449019157181,5264.87776635715
5515.48431,0.000488994223106422,790239.068827202,184.346479075078,5268.26045884802
5515.49431,0.000488732396343801,790746.551714045,184.247772711002,5271.64367809364
5515.5043,0.000488480738834087,791254.1136141,184.152900064954,5275.027424094
5515.5143,0.000488239250577283,791761.754527368,184.061861136933,5278.41169684912
5515.5243,0.000488007931573386,792269.474453849,183.97465592694,5281.79649635899
5515.5343,0.000487786781822398,792777.273393542,183.891284434974,5285.18182262361
5515.54429,0.000487575801324318,793285.151346448,183.811746661036,5288.56767564298
5515.55429,0.000487374990079147,793793.108312566,183.736042605126,5291.9540554171
5515.56429,0.000487184348086884,794301.144291897,183.664172267242,5295.34096194598
5515.57429,0.000487003875347528,794809.259284441,183.596135647386,5298.7283952296
5515.58428,0.000486833571861083,795317.453290197,183.531932745559,5302.11635526798
5515.59428,0.000486673437627544,795825.726309165,183.471563561758,5305.5048420611
5515.60428,0.000486523472646914,796334.078341348,183.415028095985,5308.89385560898
5515.61428,0.000486383676919193,796842.509386742,183.362326348239,5312.28339591161
5515.62427,0.000486254050444381,797351.019445347,183.313458318522,5315.67346296898
5515.63427,0.000486134593222474,797859.608517167,183.268424006831,5319.06405678112
5515.64427,0.000486025305253478,798368.276602199,183.227223413168,5322.455177348
5515.65427,0.000485926186537391,798877.023700444,183.189856537532,5325.84682466962
5515.66426,0.00048583723707421,799385.849811902,183.156323379924,5329.23899874601
5515.67426,0.000485758456863939,799894.754936571,183.126623940344,5332.63169957714
5515.68426,0.000485689845906576,800403.739074454,183.100758218791,5336.02492716303
5515.69426,0.000485631404202121,800912.802225549,183.078726215265,5339.41868150366
5515.70425,0.000485583131750575,801421.944389856,183.060527929768,5342.81296259904
5515.71425,0.000485545028551937,801931.165567377,183.046163362297,5346.20777044918
5515.72425,0.000485517094606207,802440.46575811,183.035632512854,5349.60310505407
5515.73425,0.000485499329913385,802949.844962056,183.028935381439,5352.99896641371
5515.74424,0.000485491734473471,803459.303179214,183.026071968051,5356.3953545281
5515.75424,0.000485494308286466,803968.840409585,183.02704227269,5359.79226939724
5515.76424,0.00048550705135237,804478.456653169,183.031846295358,5363.18971102113
5515.77423,0.000485529963671182,804988.151909965,183.040484036053,5366.58767939977
5515.78423,0.000485563045242902,805497.926179974,183.052955494775,5369.98617453316
5515.79423,0.000485606296067531,806007.779463196,183.069260671525,5373.38519642131
5515.80423,0.000485659716145067,806517.711759629,183.089399566302,5376.7847450642
5515.81422,0.000485723305475513,807027.723069277,183.113372179107,5380.18482046184
5515.82422,0.000485797064058865,807537.813392136,183.141178509938,5383.58542261424
5515.83422,0.000485880991895127,808047.982728208,183.172818558798,5386.98655152139
5515.84422,0.000485975088984297,808558.231077493,183.208292325685,5390.38820718329
5515.85421,0.000486079355326375,809068.55843999,183.2475998106,5393.79038959993
5515.86421,0.000486193790921363,809578.9648157,183.290741013543,5397.19309877133
5515.87421,0.000486318395769257,810089.450204623,183.337715934513,5400.59633469748
5515.88421,0.000486453169870061,810600.014606757,183.38852457351,5404.00009737838
5515.8942,0.000486598113223771,811110.658022106,183.443166930535,5407.40438681404
5515.9042,0.000486753225830392,811621.380450666,183.501643005587,5410.80920300444
5515.9142,0.000486918507689921,812132.181892439,183.563952798667,5414.21454594959
5515.9242,0.000487093958802357,812643.062347425,183.630096309775,5417.6204156495
5515.93419,0.000487279579167702,813154.021815623,183.70007353891,5421.02681210415
5515.94419,0.000487475368785956,813665.060297033,183.773884486072,5424.43373531356
5515.95419,0.000487681327657117,814176.177791657,183.851529151262,5427.84118527772
5515.96419,0.000487897455781187,814687.374299493,183.933007534479,5431.24916199662
5515.97418,0.000488123753158166,815198.649820543,184.018319635725,5434.65766547029
5515.98418,0.000488360219788052,815710.004354804,184.107465454997,5438.06669569869
5515.99418,0.000488606855670847,816221.437902278,184.200444992297,5441.47625268185
5516.00417,0.000488863660806549,816732.950462965,184.297258247624,5444.88633641977
5516.01417,0.000489130635195162,817244.542036864,184.39790522098,5448.29694691243
5516.02417,0.000489407778836682,817756.212623976,184.502385912362,5451.70808415984
5516.03417,0.00048969509173111,818267.962224301,184.610700321772,5455.11974816201
5516.04416,0.000489992573878447,818779.790837838,184.72284844921,5458.53193891892
5516.05416,0.000490300225278691,819291.698464588,184.838830294675,5461.94465643059
5516.06416,0.000490618045931844,819803.685104551,184.958645858167,5465.357900697
5516.07416,0.000490946035837906,820315.750757725,185.082295139688,5468.77167171817
5516.08415,0.000491284194996876,820827.895424113,185.209778139235,5472.18596949408
5516.09415,0.000491632523408754,821340.119103713,185.341094856811,5475.60079402475
5516.10415,0.00049199102107354,821852.421796526,185.476245292413,5479.01614531018
5516.11415,0.000492359687991235,822364.803502552,185.615229446043,5482.43202335035
5516.12414,0.000492738524161839,822877.26422179,185.758047317701,5485.84842814526
5516.13414,0.00049312752958535,823389.80395424,185.904698907386,5489.26535969494
5516.14414,0.00049352670426177,823902.422699905,186.055184215099,5492.68281799937
5516.15414,0.000493936048191098,824415.120458781,186.209503240839,5496.10080305854
5516.16413,0.000494355561373335,824927.89723087,186.367655984607,5499.51931487247
5516.17413,0.00049478524380848,825440.753016171,186.529642446403,5502.93835344114
5516.18413,0.000495225095496533,825953.687814685,186.695462626225,5506.35791876457
5516.19413,0.000495675116437494,826466.701626411,186.865116524075,5509.77801084274
5516.20412,0.000496135306631364,826979.794451352,187.038604139954,5513.19862967568
5516.21412,0.000496605666078142,827492.966289503,187.215925473859,5516.61977526336
5516.22412,0.000497086194777829,828006.217140868,187.397080525792,5520.04144760579
5516.23411,0.000497576892730423,828519.547005446,187.582069295752,5523.46364670297
5516.24411,0.000498077759935926,829032.955883235,187.77089178374,5526.8863725549
5516.25411,0.000498588796394338,829546.443774238,187.963547989756,5530.30962516158
5516.26411,0.000499110002105657,830060.010678453,188.160037913798,5533.73340452302
5516.2741,0.000499641377069885,830573.65659588,188.360361555869,5537.1577106392
5516.2841,0.000500182921287022,831087.381526521,188.564518915967,5540.58254351014
5516.2941,0.000500734634757068,831601.185470374,188.772509994093,5544.00790313582
5516.3041,0.00050129651748002,832115.068427439,188.984334790245,5547.43378951626
5516.31409,0.000501868569455881,832629.030397718,189.199993304426,5550.86020265145
5516.32409,0.000502450790684651,833143.071381209,189.419485536634,5554.28714254139
5516.33409,0.00050304318116633,833657.191377912,189.64281148687,5557.71460918608
5516.34409,0.000503645740900915,834171.390387828,189.869971155132,5561.14260258552
5516.35408,0.00050425846988841,834685.668410956,190.100964541423,5564.57112273971
5516.36408,0.000504881368128813,835200.025447298,190.335791645741,5568.00016964866
5516.37408,0.000505514435622124,835714.461496852,190.574452468087,5571.42974331235
5516.38408,0.000506157672368344,836228.976559619,190.81694700846,5574.85984373079
5516.39407,0.000506811078367472,836743.570635599,191.06327526686,5578.29047090399
5516.40407,0.000507474653619509,837258.24372479,191.313437243289,5581.72162483193
5516.41407,0.000508148398124453,837772.995827195,191.567432937744,5585.15330551463
5516.42407,0.000508832311882307,838287.826942812,191.825262350228,5588.58551295208
5516.43406,0.000509526394893068,838802.737071642,192.086925480738,5592.01824714428
5516.44406,0.000510230647156737,839317.726213684,192.352422329276,5595.45150809123
5516.45406,0.000510945068673315,839832.794368939,192.621752895842,5598.88529579293
5516.46406,0.000511669659442801,840347.941537407,192.894917180436,5602.31961024938
5516.47405,0.000512404419465196,840863.167719087,193.171915183056,5605.75445146058
5516.48405,0.000513149348740499,841378.47291398,193.452746903705,5609.18981942653
5516.49405,0.000513904447268711,841893.857122086,193.737412342381,5612.62571414724
5516.50404,0.00051466971504983,842409.320343404,194.025911499084,5616.0621356227
5516.51404,0.000515445152083858,842924.862577934,194.318244373815,5619.49908385289
5516.52404,0.000516230758370794,843440.483825678,194.614410966573,5622.93655883786
5516.53404,0.000517026533910639,843956.184086635,194.914411277359,5626.37456057757
5516.54403,0.000517832478703392,844471.963360803,195.218245306172,5629.81308907202
5516.55403,0.000518648592749053,844987.821648184,195.525913053013,5633.25214432123
5516.56403,0.000519474876047622,845503.758948779,195.837414517881,5636.69172632519
5516.57403,0.0005203113285991,846019.775262585,196.152749700777,5640.1318350839
5516.58402,0.000521157950403487,846535.870589605,196.471918601701,5643.57247059737
5516.59402,0.000522014741460782,847052.044929837,196.794921220652,5647.01363286558
5516.60402,0.000522881701770984,847568.298283282,197.12175755763,5650.45532188854
5516.61402,0.000523758831334095,848084.630649938,197.452427612636,5653.89753766626
5516.62401,0.000524646130150114,848601.042029808,197.78693138567,5657.34028019872
5516.63401,0.000525543598219042,849117.53242289,198.125268876731,5660.78354948594
5516.64401,0.000526451235540879,849634.101829186,198.467440085819,5664.2273455279
5516.65401,0.000527369042115624,850150.750248694,198.813445012936,5667.67166832462
5516.664,0.000528297017943276,850667.477681413,199.163283658079,5671.11651787609
5516.674,0.000529235163023837,851184.284127346,199.51695602125,5674.56189418231
5516.684,0.000530183477357307,851701.169586492,199.874462102449,5678.00779724328
5516.694,0.000531141960943684,852218.134058851,200.235801901675,5681.454227059
5516.70399,0.000532110613782971,852735.177544421,200.600975418928,5684.90118362947
5516.71399,0.000533089435875166,853252.300043205,200.96998265421,5688.3486669547
5516.72399,0.000534078427220268,853769.501555201,201.342823607518,5691.79667703467
5516.73398,0.000535077587818279,854286.782080409,201.719498278854,5695.2452138694
5516.74398,0.000536086917669199,854804.141618831,202.100006668218,5698.69427745887
5516.75398,0.000537106416773027,855321.580170465,202.484348775609,5702.1438678031
5516.76398,0.000538136085129762,855839.097735311,202.872524601028,5705.59398490207
5516.77397,0.000539175922739407,856356.694313371,203.264534144474,5709.04462875581
5516.78397,0.00054022592960196,856874.369904642,203.660377405948,5712.49579936428
5516.79397,0.000541286105717421,857392.124509127,204.060054385449,5715.94749672751
5516.80397,0.00054235645108579,857909.958126824,204.463565082978,5719.39972084549
5516.81396,0.000543436965707068,858427.870757734,204.870909498534,5722.85247171823
5516.82396,0.000544527649581254,858945.862401857,205.282087632118,5726.30574934571
5516.83396,0.000545628502708348,859463.933059191,205.697099483729,5729.75955372794
5516.84396,0.00054673952508835,859982.082729739,206.115945053368,5733.21388486493
5516.85395,0.000547860716721262,860500.311413499,206.538624341035,5736.66874275666
5516.86395,0.000548992077607081,861018.619110473,206.965137346728,5740.12412740315
5516.87395,0.000550133607745809,861537.005820658,207.39548407045,5743.58003880439
5516.88395,0.000551285307137445,862055.471544056,207.829664512199,5747.03647696037
5516.89394,0.000552447175781989,862574.016280667,208.267678671975,5750.49344187111
5516.90394,0.000553619213679442,863092.64003049,208.709526549779,5753.9509335366
5516.91394,0.000554801420829803,863611.342793527,209.155208145611,5757.40895195685
5516.92394,0.000555993797233073,864130.124569775,209.60472345947,5760.86749713183
5516.93393,0.000557196342889251,864648.985359237,210.058072491356,5764.32656906158
5516.94393,0.000558409057798336,865167.925161911,210.51525524127,5767.78616774607
5516.95393,0.000559631941960331,865686.943977797,210.976271709212,5771.24629318532
5516.96392,0.000560864995375233,866206.041806896,211.441121895181,5774.70694537931
5516.97392,0.000562108218043044,866725.218649207,211.909805799177,5778.16812432805
5516.98392,0.000563361609963763,867244.474504733,212.382323421201,5781.62983003155
5516.99392,0.000564625171137392,867763.809373469,212.858674761253,5785.09206248979
5517.00391,0.000565898901563926,868283.223255419,213.338859819332,5788.5548217028
5517.01391,0.000567182801243372,868802.716150581,213.822878595439,5792.01810767054
5517.02391,0.000568476870175725,869322.288058957,214.310731089573,5795.48192039304
5517.03391,0.000569781108360985,869841.938980545,214.802417301734,5798.9462598703
5517.0439,0.000571095515799154,870361.668915345,215.297937231923,5802.4111261023
5517.0539,0.000572420092490232,870881.477863357,215.79729088014,5805.87651908905
5517.0639,0.000573754838434218,871401.365824583,216.300478246384,5809.34243883055
5517.0739,0.000575099753631112,871921.332799021,216.807499330656,5812.80888532681
5517.08389,0.000576454838080913,872441.378786672,217.318354132955,5816.27585857781
5517.09389,0.000577820091783625,872961.503787535,217.833042653282,5819.74335858357
5517.10389,0.000579195514739245,873481.707801612,218.351564891636,5823.21138534408
5517.11389,0.000580581106947771,874001.990828901,218.873920848018,5826.67993885934
5517.12388,0.000581976868409208,874522.352869401,219.400110522427,5830.14901912934
5517.13388,0.000583382799123551,875042.793923115,219.930133914864,5833.6186261541
5517.14388,0.000584798899090804,875563.313990041,220.463991025328,5837.0887599336
5517.15388,0.000586225168310966,876083.91307018,221.00168185382,5840.55942046787
5517.16387,0.000587661606784034,876604.591163532,221.543206400339,5844.03060775688
5517.17387,0.000589108214510012,877125.348270097,222.088564664887,5847.50232180065
5517.18387,0.000590564991488898,877646.184389874,222.637756647461,5850.97456259916
5517.19387,0.000592031937720693,878167.099522864,223.190782348063,5854.44733015243
5517.20386,0.000593509053205394,878688.093669067,223.747641766692,5857.92062446044
5517.21386,0.000594996337943005,879209.166828481,224.308334903349,5861.39444552321
5517.22386,0.000596493791933525,879730.31900111,224.872861758034,5864.86879334073
5517.23385,0.000598001415176953,880251.55018695,225.441222330746,5868.343667913
5517.24385,0.000599519207673288,880772.860386001,226.013416621485,5871.81906924001
5517.25385,0.000601047169422531,881294.249598267,226.589444630252,5875.29499732178
5517.26385,0.000602585300424684,881815.717823746,227.169306357046,5878.7714521583
5517.27384,0.000604133600679745,882337.265062436,227.753001801868,5882.24843374957
5517.28384,0.000605692070187715,882858.891314339,228.340530964718,5885.7259420956
5517.29384,0.000607260708948591,883380.596579456,228.931893845595,5889.20397719637
5517.30384,0.000608839516962378,883902.380857784,229.5270904445,5892.6825390519
5517.31383,0.000610428494229071,884424.244149326,230.126120761431,5896.16162766217
5517.32383,0.000612027640748674,884946.18645408,230.728984796391,5899.6412430272
5517.33383,0.000613636956521185,885468.207772046,231.335682549378,5903.12138514697
5517.34383,0.000615256441546604,885990.308103226,231.946214020393,5906.6020540215
5517.35382,0.000616886095824932,886512.487447617,232.560579209435,5910.08324965078
5517.36382,0.000618525919356167,887034.74580522,233.178778116505,5913.5649720348
5517.37382,0.000620175912140311,887557.083176038,233.800810741602,5917.04722117359
5517.38382,0.000621836074177364,888079.499560069,234.426677084727,5920.52999706712
5517.39381,0.000623506405467324,888601.994957311,235.056377145879,5924.01329971541
5517.40381,0.000625186906010194,889124.569367765,235.689910925059,5927.49712911843
5517.41381,0.000626877575805971,889647.222791433,236.327278422266,5930.98148527622
5517.42381,0.000628578414854656,890169.955228313,236.968479637501,5934.46636818876
5517.4338,0.000630289423156249,890692.766678406,237.613514570763,5937.95177785604
5517.4438,0.000632010600710753,891215.657141711,238.262383222053,5941.43771427808
5517.4538,0.000633741947518163,891738.62661823,238.91508559137,5944.92417745487
5517.46379,0.000635483463578482,892261.675107961,239.571621678715,5948.4111673864
5517.47379,0.000637235148891709,892784.802610904,240.231991484087,5951.8986840727
5517.48379,0.000638997003457846,893308.009127059,240.896195007487,5955.38672751373
5517.49379,0.000640769027276888,893831.294656428,241.564232248914,5958.87529770952
5517.50378,0.000642551220348841,894354.65919901,242.236103208369,5962.36439466007
5517.51378,0.000644343582673703,894878.102754804,242.911807885852,5965.85401836536
5517.52378,0.000646146114251471,895401.625323809,243.591346281361,5969.3441688254
5517.53378,0.000647958815082148,895925.22690603,244.274718394899,5972.8348460402
5517.54377,0.000649781685165733,896448.907501461,244.961924226464,5976.32605000974
5517.55377,0.000651614724502227,896972.667110105,245.652963776056,5979.81778073403
5517.56377,0.00065345793309163,897496.505731963,246.347837043676,5983.31003821308
5517.57377,0.00065531131093394,898020.423367032,247.046544029324,5986.80282244688
5517.58376,0.000657174858029159,898544.420015314,247.749084732999,5990.29613343543
5517.59376,0.000659048574377287,899068.495676809,248.455459154701,5993.78997117873
5517.60376,0.000660932459978323,899592.650351517,249.165667294432,5997.28433567678
5517.61376,0.000662826514832266,900116.884039437,249.879709152189,6000.77922692958
5517.62375,0.000664730738939118,900641.196740569,250.597584727974,6004.27464493713
5517.63375,0.000666645132298879,901165.588454915,251.319294021787,6007.77058969943
5517.64375,0.000668569694911547,901690.059182474,252.044837033626,6011.26706121649
5517.65375,0.000670504426777125,902214.608923244,252.774213763494,6014.76405948829
5517.66374,0.00067244932789561,902739.237677227,253.507424211389,6018.26158451485
5517.67374,0.000674404398267004,903263.945444423,254.244468377312,6021.75963629615
5517.68374,0.000676369637891306,903788.732224832,254.985346261262,6025.25821483221
5517.69373,0.000678345046768518,904313.598018454,255.73005786324,6028.75732012303
5517.70373,0.000680330624898636,904838.542825287,256.478603183245,6032.25695216858
5517.71373,0.000682326372281663,905363.566645334,257.230982221278,6035.75711096889
5517.72373,0.000684332288917598,905888.669478593,257.987194977337,6039.25779652395
5517.73372,0.000686348374806442,906413.851325064,258.747241451425,6042.75900883376
5517.74372,0.000688374629948195,906939.112184749,259.511121643541,6046.26074789833
5517.75372,0.000690411054342854,907464.452057646,260.278835553683,6049.76301371764
5517.76372,0.000692457647990423,907989.870943757,261.050383181853,6053.26580629171
5517.77371,0.0006945144108909,908515.368843077,261.825764528051,6056.76912562052
5517.78371,0.000696581343044287,909040.945755612,262.604979592277,6060.27297170408
5517.79371,0.000698658444450579,909566.601681359,263.388028374529,6063.7773445424
5517.80371,0.000700745715109782,910092.336620319,264.17491087481,6067.28224413546
5517.8137,0.000702843155021892,910618.150572493,264.965627093118,6070.78767048329
5517.8237,0.00070495076418691,911144.043537878,265.760177029453,6074.29362358585
5517.8337,0.000707068542604838,911670.015516477,266.558560683816,6077.80010344318
5517.8437,0.000709196490275674,912196.066508287,267.360778056207,6081.30711005525
5517.85369,0.000711334607199418,912722.19651331,268.166829146625,6084.81464342207
5517.86369,0.000713482893376069,913248.405531546,268.97671395507,6088.32270354364
5517.87369,0.00071564134880563,913774.693562995,269.790432481543,6091.83129041997
