Time,Velocity,Pressure,Gamma,Tau
6463.40756,0.000427798451694306,817816.627711267,161.27621676719,5452.11085140845
6463.41756,0.000427236269363719,818356.157862235,161.06427902162,5455.70771908157
6463.42756,0.000426693807183026,818896.698903728,160.859775597414,5459.31132602485
6463.43756,0.000426171065152216,819438.250835748,160.662706494569,5462.92167223832
6463.44755,0.000425668043271293,819980.813658293,160.473071713084,5466.53875772195
6463.45755,0.000425184741540255,820524.387371363,160.290871252961,5470.16258247575
6463.46755,0.000424721159959107,821068.971974959,160.1161051142,5473.79314649973
6463.47755,0.000424277298527846,821614.56746908,159.9487732968,5477.43044979387
6463.48754,0.000423853157246471,822161.173853727,159.788875800762,5481.07449235818
6463.49754,0.000423448736114983,822708.791128899,159.636412626086,5484.72527419266
6463.50754,0.000423064035133382,823257.419294599,159.49138377277,5488.38279529732
6463.51754,0.000422699054301668,823807.058350821,159.353789240817,5492.04705567214
6463.52753,0.00042235379361984,824357.708297571,159.223629030224,5495.71805531714
6463.53753,0.000422028253087902,824909.369134846,159.100903140994,5499.39579423231
6463.54753,0.000421722432705848,825462.040862647,158.985611573125,5503.08027241765
6463.55753,0.000421436332473685,826015.723480974,158.877754326618,5506.77148987316
6463.56752,0.000421169952391404,826570.416989825,158.777331401472,5510.46944659883
6463.57752,0.000420923292459014,827126.121389202,158.684342797688,5514.17414259468
6463.58752,0.000420696352676508,827682.836679105,158.598788515265,5517.8855778607
6463.59751,0.000420489133043892,828240.562859533,158.520668554204,5521.60375239689
6463.60751,0.000420301633561159,828799.299930486,158.449982914503,5525.32866620324
6463.61751,0.000420133854228316,829359.047891966,158.386731596165,5529.06031927978
6463.62751,0.00041998579504536,829919.806743971,158.330914599189,5532.79871162647
6463.6375,0.000419857456012292,830481.576486502,158.282531923574,5536.54384324335
6463.6475,0.000419748837129108,831044.357119559,158.24158356932,5540.29571413039
6463.6575,0.000419659938395814,831608.14864314,158.208069536428,5544.0543242876
6463.6675,0.000419590759812405,832172.951057246,158.181989824897,5547.81967371498
6463.67749,0.000419541301378885,832738.76436188,158.163344434729,5551.59176241253
6463.68749,0.000419511563095249,833305.588557038,158.152133365921,5555.37059038026
6463.69749,0.000419501544961501,833873.423642722,158.148356618474,5559.15615761815
6463.70749,0.000419511246977642,834442.269618932,158.15201419239,5562.94846412622
6463.71748,0.000419540669143669,835012.126485667,158.163106087668,5566.74750990445
6463.72748,0.000419589811459583,835582.994242928,158.181632304306,5570.55329495285
6463.73748,0.000419658673925383,836154.872890714,158.207592842306,5574.36581927143
6463.74748,0.000419747256541071,836727.762429025,158.240987701668,5578.18508286017
6463.75747,0.000419855559306646,837301.662857863,158.281816882391,5582.01108571909
6463.76747,0.000419983582222107,837876.574177227,158.330080384475,5585.84382784818
6463.77747,0.000420131325287458,838452.496387115,158.385778207922,5589.68330924743
6463.78747,0.000420298788502694,839029.429487528,158.44891035273,5593.52952991686
6463.79746,0.000420485971867816,839607.373478468,158.5194768189,5597.38248985645
6463.80746,0.000420692875382826,840186.328359933,158.59747760643,5601.24218906622
6463.81746,0.000420919499047723,840766.294131925,158.682912715323,5605.10862754616
6463.82745,0.000421165842862508,841347.270794441,158.775782145577,5608.98180529627
6463.83745,0.000421431906827178,841929.258347482,158.876085897192,5612.86172231655
6463.84745,0.000421717690941736,842512.25679105,158.983823970169,5616.748378607
6463.85745,0.000422023195206181,843096.266125143,159.098996364508,5620.64177416762
6463.86744,0.000422348419620513,843681.286349761,159.221603080208,5624.54190899841
6463.87744,0.000422693364184733,844267.317464906,159.351644117269,5628.44878309937
6463.88744,0.000423058028898838,844854.359470575,159.489119475692,5632.3623964705
6463.89744,0.000423442413762832,845442.412366771,159.634029155477,5636.28274911181
6463.90743,0.000423846518776712,846031.476153492,159.786373156623,5640.20984102328
6463.91743,0.00042427034394048,846621.550830739,159.946151479131,5644.14367220493
6463.92743,0.000424713889254134,847212.63639851,160.113364123,5648.08424265674
6463.93743,0.000425177154717676,847804.732856808,160.288011088231,5652.03155237872
6463.94742,0.000425660140331105,848397.840205631,160.470092374824,5655.98560137087
6463.95742,0.000426162846094418,848991.95844498,160.659607982777,5659.9463896332
6463.96742,0.000426685272007621,849587.087574855,160.856557912093,5663.9139171657
6463.97742,0.000427227418070711,850183.227595254,161.06094216277,5667.88818396836
6463.98741,0.000427789284283688,850780.378506179,161.272760734808,5671.8691900412
6463.99741,0.000428370870646551,851378.54030763,161.492013628208,5675.8569353842
6464.00741,0.000428972177159302,851977.712999606,161.71870084297,5679.85141999738
6464.01741,0.000429593203821939,852577.896582109,161.952822379093,5683.85264388073
6464.0274,0.000430233950634464,853179.091055136,162.194378236578,5687.86060703424
6464.0374,0.000430894417596876,853781.296418689,162.443368415424,5691.87530945793
6464.0474,0.000431574604709174,854384.512672768,162.699792915631,5695.89675115179
6464.05739,0.00043227451197136,854988.739817373,162.963651737201,5699.92493211582
6464.06739,0.000432994139383433,855593.977852502,163.234944880132,5703.95985235002
6464.07739,0.000433733486945392,856200.226778158,163.513672344423,5708.00151185439
6464.08739,0.00043449255465724,856807.486594338,163.799834130078,5712.04991062892
6464.09738,0.000435271342518974,857415.757301046,164.093430237093,5716.10504867364
6464.10738,0.000436069850530594,858025.038898278,164.39446066547,5720.16692598852
6464.11738,0.000436888078692102,858635.331386036,164.702925415208,5724.23554257357
6464.12738,0.000437726027003497,859246.634764319,165.018824486308,5728.31089842879
6464.13737,0.000438583695464779,859858.949033128,165.34215787877,5732.39299355419
6464.14737,0.000439461084075948,860472.274192462,165.672925592593,5736.48182794975
6464.15737,0.000440358192837004,861086.610242323,166.011127627777,5740.57740161548
6464.16737,0.000441275021747947,861701.957182708,166.356763984323,5744.67971455139
6464.17736,0.000442211570808777,862318.31501362,166.709834662231,5748.78876675747
6464.18736,0.000443167840019494,862935.683735055,167.0703396615,5752.9045582337
6464.19736,0.000444143829380099,863554.063347018,167.438278982131,5757.02708898012
6464.20736,0.00044513953889059,864173.453849506,167.813652624123,5761.15635899671
6464.21735,0.000446154968550968,864793.855242519,168.196460587477,5765.29236828346
6464.22735,0.000447190118361234,865415.267526058,168.586702872192,5769.43511684039
6464.23735,0.000448244988321386,866037.690700124,168.984379478269,5773.58460466749
6464.24735,0.000449319578431425,866661.124764714,169.389490405707,5777.74083176476
6464.25734,0.00045041388869135,867285.569719829,169.802035654507,5781.90379813219
6464.26734,0.000451527919101164,867911.025565469,170.222015224668,5786.0735037698
6464.27734,0.000452661669660865,868537.492301636,170.649429116191,5790.24994867758
6464.28734,0.000453815140370452,869164.969928329,171.084277329076,5794.43313285552
6464.29733,0.000454988331229928,869793.458445547,171.526559863322,5798.62305630364
6464.30733,0.000456181242239288,870422.95785329,171.97627671893,5802.81971902194
6464.31733,0.000457393873398536,871053.468151559,172.433427895898,5807.0231210104
6464.32732,0.000458626224707671,871684.989340355,172.898013394229,5811.23326226903
6464.33732,0.000459878296166694,872317.521419675,173.370033213921,5815.45014279783
6464.34732,0.000461150087775604,872951.06438952,173.849487354975,5819.6737625968
6464.35732,0.0004624415995344,873585.618249891,174.33637581739,5823.90412166594
6464.36731,0.000463752831443085,874221.183000788,174.830698601167,5828.14122000525
6464.37731,0.000465083783501655,874857.758642211,175.332455706305,5832.38505761474
6464.38731,0.000466434455710112,875495.345174159,175.841647132805,5836.63563449439
6464.39731,0.000467804848068456,876133.942596633,176.358272880666,5840.89295064422
6464.4073,0.000469194960576688,876773.550909632,176.882332949889,5845.15700606421
6464.4173,0.000470604793234808,877414.170113155,177.413827340474,5849.42780075437
6464.4273,0.000472034346042813,878055.800207206,177.95275605242,5853.70533471471
6464.4373,0.000473483619000706,878698.441191782,178.499119085727,5857.98960794522
6464.44729,0.000474952612108486,879342.093066884,179.052916440396,5862.28062044589
6464.45729,0.000476441325366153,879986.75583251,179.614148116427,5866.57837221674
6464.46729,0.000477949758773707,880632.429488663,180.182814113819,5870.88286325775
6464.47729,0.000479477912331148,881279.114035342,180.758914432573,5875.19409356895
6464.48728,0.000481025786038475,881926.809472545,181.342449072687,5879.5120631503
6464.49728,0.000482593379895691,882575.515800274,181.933418034164,5883.83677200183
6464.50728,0.000484180693902792,883225.233018529,182.531821317002,5888.16822012353
6464.51728,0.000485787728059781,883875.961127309,183.137658921202,5892.5064075154
6464.52727,0.000487414482366657,884527.700126615,183.750930846763,5896.85133417743
6464.53727,0.000489060956823421,885180.450016446,184.371637093686,5901.20300010964
6464.54727,0.00049072715143007,885834.210796804,184.99977766197,5905.56140531203
6464.55726,0.000492413066186608,886488.982467686,185.635352551617,5909.92654978458
6464.56726,0.000494118701093033,887144.765029095,186.278361762624,5914.2984335273
6464.57726,0.000495844056149343,887801.558481028,186.928805294993,5918.67705654019
6464.58726,0.000497589131355541,888459.362823487,187.586683148723,5923.06241882325
6464.59725,0.000499353926711626,889118.178056473,188.251995323815,5927.45452037649
6464.60725,0.000501138442217598,889778.004179984,188.924741820269,5931.85336119989
6464.61725,0.000502942677873458,890438.841194018,189.604922638084,5936.25894129346
6464.62725,0.000504766633679205,891100.689098581,190.292537777261,5940.67126065721
6464.63724,0.000506610309634837,891763.547893669,190.987587237799,5945.09031929113
6464.64724,0.000508473705740357,892427.417579281,191.690071019698,5949.5161171952
6464.65724,0.000510356821995765,893092.298155419,192.39998912296,5953.94865436946
6464.66724,0.000512259658401059,893758.189622082,193.117341547582,5958.38793081388
6464.67723,0.000514182214956241,894425.091979273,193.842128293566,5962.83394652848
6464.68723,0.000516124491661309,895093.005226987,194.574349360912,5967.28670151325
6464.69723,0.000518086488516265,895761.929365228,195.31400474962,5971.74619576819
6464.70723,0.000520068205521108,896431.864393994,196.061094459689,5976.21242929329
6464.71722,0.000522069642675837,897102.810313286,196.815618491119,5980.68540208857
6464.72722,0.000524090799980453,897774.767123102,197.577576843911,5985.16511415402
6464.73722,0.000526131677434958,898447.734823446,198.346969518065,5989.65156548964
6464.74722,0.000528192275039348,899121.713414314,199.123796513579,5994.14475609543
6464.75721,0.000530272592793625,899796.702895707,199.908057830456,5998.64468597138
6464.76721,0.000532372630697791,900472.703267628,200.699753468694,6003.15135511752
6464.77721,0.000534492388751842,901149.714530072,201.498883428294,6007.66476353381
6464.78721,0.000536631866955781,901827.736683043,202.305447709255,6012.18491122029
6464.7972,0.000538791065309606,902506.769726539,203.119446311577,6016.71179817693
6464.8072,0.00054096998381332,903186.813660561,203.940879235262,6021.24542440374
6464.8172,0.000543168622466919,903867.868485108,204.769746480307,6025.78578990072
6464.82719,0.000545386981270406,904549.934200181,205.606048046715,6030.33289466787
6464.83719,0.000547625060223779,905233.01080578,206.449783934483,6034.8867387052
6464.84719,0.000549882859327041,905917.098301904,207.300954143614,6039.44732201269
6464.85719,0.000552160378580189,906602.196688554,208.159558674106,6044.01464459036
6464.86718,0.000554457617983224,907288.305965728,209.025597525959,6048.58870643819
6464.87718,0.000556774577536145,907975.42613343,209.899070699174,6053.1695075562
6464.88718,0.000559111257238955,908663.557191655,210.77997819375,6057.75704794437
6464.89718,0.000561467657091651,909352.699140407,211.668320009688,6062.35132760271
6464.90717,0.000563843777094234,910042.851979686,212.564096146988,6066.95234653124
6464.91717,0.000566239617246703,910734.015709487,213.467306605649,6071.56010472992
6464.92717,0.00056865517754906,911426.190329816,214.377951385671,6076.17460219878
6464.93717,0.000571090458001305,912119.37584067,215.296030487056,6080.7958389378
6464.94716,0.000573545458603438,912813.572242051,216.221543909802,6085.423814947
6464.95716,0.000576020179355456,913508.779533955,217.154491653909,6090.05853022637
6464.96716,0.000578514620257359,914204.997716386,218.094873719377,6094.69998477591
6464.97716,0.000581028781309153,914902.226789343,219.042690106208,6099.34817859562
6464.98715,0.000583562662510831,915600.466752824,219.997940814399,6104.0031116855
6464.99715,0.000586116263862399,916299.717606833,220.960625843953,6108.66478404555
6465.00715,0.000588689585363851,916999.979351365,221.930745194868,6113.33319567577
6465.01715,0.000591282627015191,917701.251986424,222.908298867144,6118.00834657616
6465.02714,0.000593895388816421,918403.535512009,223.893286860782,6122.69023674673
6465.03714,0.000596527870767534,919106.829928119,224.885709175781,6127.37886618746
6465.04714,0.000599180072868534,919811.135234754,225.885565812142,6132.07423489836
6465.05713,0.000601851995119423,920516.451431914,226.892856769865,6136.77634287943
6465.06713,0.0006045436375202,921222.7785196,227.907582048949,6141.48519013067
6465.07713,0.000607255000070862,921930.116497812,228.929741649395,6146.20077665208
6465.08713,0.000609986082771411,922638.46536655,229.959335571202,6150.92310244367
6465.09712,0.000612736885621848,923347.825125814,230.99636381437,6155.65216750542
6465.10712,0.000615507408622171,924058.195775603,232.0408263789,6160.38797183735
6465.11712,0.000618297651772381,924769.577315917,233.092723264792,6165.13051543944
6465.12712,0.00062110761507248,925481.969746757,234.152054472046,6169.87979831171
6465.13711,0.000623937298522464,926195.373068122,235.21882000066,6174.63582045415
6465.14711,0.000626786702122336,926909.787280012,236.293019850637,6179.39858186674
6465.15711,0.000629655825872096,927625.212382429,237.374654021975,6184.16808254953
6465.16711,0.000632544669771741,928341.64837537,238.463722514674,6188.94432250247
6465.1771,0.000635453233821274,929059.095258839,239.560225328735,6193.72730172559
6465.1871,0.000638381518020694,929777.553032832,240.664162464157,6198.51702021888
6465.1971,0.000641329522370001,930497.021697352,241.775533920942,6203.31347798235
6465.2071,0.000644297246869194,931217.501252395,242.894339699087,6208.11667501597
6465.21709,0.000647284691518277,931938.991697966,244.020579798594,6212.92661131977
6465.22709,0.000650291856317244,932661.49303406,245.154254219463,6217.74328689374
6465.23709,0.000653318741266098,933385.005260683,246.295362961693,6222.56670173788
6465.24709,0.000656365346364841,934109.528377829,247.443906025284,6227.39685585219
6465.25708,0.00065943167161347,934835.062385501,248.599883410238,6232.23374923668
6465.26708,0.000662517717011985,935561.607283699,249.763295116552,6237.07738189133
6465.27708,0.000665623482560389,936289.163072423,250.934141144229,6241.92775381615
6465.28707,0.000668748968258679,937017.729751671,252.112421493266,6246.78486501114
6465.29707,0.000671894174106856,937747.307321445,253.298136163665,6251.6487154763
6465.30707,0.000675059100104922,938477.895781746,254.491285155427,6256.51930521164
6465.31707,0.000678243746252874,939209.495132572,255.69186846855,6261.39663421714
6465.32706,0.000681448112550709,939942.105373923,256.899886103032,6266.28070249282
6465.33706,0.000684672198998435,940675.726505799,258.115338058878,6271.17151003866
6465.34706,0.000687916005596047,941410.358528201,259.338224336085,6276.06905685468
6465.35706,0.000691179532343547,942146.00144113,260.568544934654,6280.97334294087
6465.36705,0.000694462779240934,942882.655244583,261.806299854584,6285.88436829722
6465.37705,0.000697765746288206,943620.319938561,263.051489095875,6290.80213292374
6465.38705,0.000701088433485365,944358.995523066,264.304112658528,6295.72663682044
6465.39705,0.000704430840832414,945098.681998098,265.564170542543,6300.65787998732
6465.40704,0.000707792968329349,945839.379363652,266.831662747919,6305.59586242435
6465.41704,0.00071117481597617,946581.087619734,268.106589274657,6310.54058413156
6465.42704,0.000714576383772878,947323.806766341,269.388950122756,6315.49204510894
6465.43704,0.000717997671719475,948067.536803473,270.678745292217,6320.45024535649
6465.44703,0.000721438679815956,948812.27773113,271.975974783039,6325.4151848742
6465.45703,0.000724899408062325,949558.029549314,273.280638595223,6330.38686366209
6465.46703,0.000728379856458584,950304.792258023,274.592736728769,6335.36528172015
6465.47703,0.000731880025004726,951052.565857257,275.912269183675,6340.35043904838
6465.48702,0.000735399913700758,951801.350347018,277.239235959944,6345.34233564679
6465.49702,0.000738939522546675,952551.145727304,278.573637057574,6350.34097151536
6465.50702,0.00074249885154248,953301.951998115,279.915472476566,6355.3463466541
6465.51702,0.000746077900688173,954053.769159452,281.264742216919,6360.35846106301
6465.52701,0.00074967666998375,954806.597211315,282.621446278633,6365.3773147421
6465.53701,0.000753295159429215,955560.436153703,283.985584661709,6370.40290769136
6465.54701,0.000756933369024569,956315.285986616,285.357157366147,6375.43523991077
6465.557,0.00076059129876981,957071.146710055,286.736164391947,6380.47431140037
6465.567,0.000764268948664936,957828.01832402,288.122605739107,6385.52012216013
6465.577,0.00076796631870995,958585.900828512,289.516481407629,6390.57267219008
6465.587,0.000771683408904851,959344.794223527,290.917791397513,6395.63196149018
6465.59699,0.00077542021924964,960104.698509068,292.326535708759,6400.69799006046
6465.60699,0.000779176749744314,960865.613685135,293.742714341365,6405.7707579009
6465.61699,0.000782953000388876,961627.539751727,295.166327295333,6410.85026501152
6465.62699,0.000786748971183325,962390.476708847,296.597374570663,6415.93651139231
6465.63698,0.000790564662127661,963154.42455649,298.035856167355,6421.02949704327
6465.64698,0.000794400073221885,963919.383294658,299.481772085408,6426.12922196439
6465.65698,0.000798255204465994,964685.352923354,300.935122324822,6431.23568615569
6465.66698,0.000802130055859992,965452.333442575,302.395906885599,6436.34888961717
6465.67697,0.000806024627403876,966220.32485232,303.864125767736,6441.4688323488
6465.68697,0.000809938919097647,966989.327152592,305.339778971235,6446.59551435061
6465.69697,0.000813872930941305,967759.340343389,306.822866496096,6451.72893562259
6465.70697,0.000817826662934851,968530.364424711,308.313388342318,6456.86909616474
6465.71696,0.000821800115078282,969302.39939656,309.811344509901,6462.01599597707
6465.72696,0.000825793287371604,970075.445258933,311.316734998847,6467.16963505955
6465.73696,0.000829806179814811,970849.502011833,312.829559809154,6472.33001341222
6465.74696,0.000833838792407903,971624.569655258,314.349818940822,6477.49713103505
6465.75695,0.000837891125150882,972400.648189209,315.877512393852,6482.67098792806
6465.76695,0.000841963178043749,973177.737613684,317.412640168243,6487.85158409123
6465.77695,0.000846054951086505,973955.837928686,318.955202263996,6493.03891952458
6465.78694,0.000850166444279145,974734.949134213,320.50519868111,6498.23299422809
6465.79694,0.000854297657621674,975515.071230266,322.062629419586,6503.43380820177
6465.80694,0.000858448591114092,976296.204216845,323.627494479425,6508.64136144563
6465.81694,0.000862619244756394,977078.348093948,325.199793860623,6513.85565395965
