Time,Velocity,Pressure,Gamma,Tau
6704.48481,0.000508368637895612,800175.180333183,191.650461375397,5334.50120222122
6704.49481,0.000509182233640708,800988.020932599,191.957179745291,5339.92013955066
6704.50481,0.000510012587192436,801800.550139954,192.27021565945,5345.33700093303
6704.5148,0.000510859698550796,802612.767955248,192.589569117873,5350.75178636832
6704.5248,0.000511723567715787,803424.674378481,192.915240120561,5356.16449585654
6704.5348,0.000512604194687409,804236.269409653,193.247228667513,5361.57512939768
6704.5448,0.000513501579465661,805047.553048763,193.585534758729,5366.98368699175
6704.55479,0.000514415722050546,805858.525295813,193.93015839421,5372.39016863876
6704.56479,0.000515346622442064,806669.186150802,194.281099573956,5377.79457433868
6704.57479,0.000516294280640211,807479.53561373,194.638358297966,5383.19690409153
6704.58479,0.000517258696644991,808289.573684596,195.00193456624,5388.59715789731
6704.59478,0.000518239870456403,809099.300363403,195.37182837878,5393.99533575602
6704.60478,0.000519237802074446,809908.715650148,195.748039735583,5399.39143766765
6704.61478,0.00052025249149912,810717.819544832,196.130568636651,5404.78546363221
6704.62477,0.000521283938730427,811526.612047454,196.519415081983,5410.17741364969
6704.63477,0.000522332143768364,812335.093158016,196.91457907158,5415.56728772011
6704.64477,0.000523397106612932,813143.262876517,197.316060605441,5420.95508584344
6704.65477,0.000524478827264132,813951.121202957,197.723859683567,5426.34080801971
6704.66476,0.000525577305721965,814758.668137335,198.137976305957,5431.7244542489
6704.67476,0.000526692541986426,815565.903679653,198.558410472611,5437.10602453102
6704.68476,0.000527824536057522,816372.827829909,198.98516218353,5442.48551886606
6704.69476,0.000528973287935248,817179.440588106,199.418231438714,5447.86293725404
6704.70475,0.000530138797619606,817985.741954241,199.857618238162,5453.23827969494
6704.71475,0.000531321065110596,818791.731928314,200.303322581874,5458.61154618876
6704.72475,0.000532520090408217,819597.410510326,200.755344469851,5463.98273673551
6704.73475,0.000533735873512469,820402.777700278,201.213683902092,5469.35185133519
6704.74474,0.000534968414423354,821207.83349817,201.678340878599,5474.7188899878
6704.75474,0.000536217713140868,822012.577903999,202.149315399369,5480.08385269333
6704.76474,0.000537483769665016,822817.010917767,202.626607464403,5485.44673945178
6704.77474,0.000538766583995793,823621.132539476,203.110217073702,5490.80755026317
6704.78473,0.000540066156133203,824424.942769122,203.600144227266,5496.16628512748
6704.79473,0.000541382486077245,825228.441606708,204.096388925094,5501.52294404472
6704.80473,0.000542715573827919,826031.629052232,204.598951167187,5506.87752701488
6704.81473,0.000544065419385223,826834.505105696,205.107830953544,5512.23003403797
6704.82472,0.00054543202274916,827637.069767099,205.623028284166,5517.58046511399
6704.83472,0.000546815383919728,828439.32303644,206.144543159052,5522.92882024293
6704.84472,0.000548215502896926,829241.264913721,206.672375578202,5528.27509942481
6704.85472,0.000549632379680755,830042.89539894,207.206525541616,5533.6193026596
6704.86471,0.000551066014271218,830844.214492099,207.746993049296,5538.96142994733
6704.87471,0.000552516406668312,831645.222193197,208.29377810124,5544.30148128798
6704.88471,0.000553983556872036,832445.918502232,208.846880697448,5549.63945668155
6704.8947,0.000555467464882393,833246.303419208,209.406300837921,5554.97535612805
6704.9047,0.000556968130699381,834046.376944123,209.972038522658,5560.30917962749
6704.9147,0.000558485554323002,834846.139076976,210.54409375166,5565.64092717984
6704.9247,0.000560019735753252,835645.589817769,211.122466524926,5570.97059878513
6704.93469,0.000561570674990136,836444.7291665,211.707156842457,5576.29819444333
6704.94469,0.000563138372033649,837243.557123171,212.298164704251,5581.62371415447
6704.95469,0.000564722826883794,838042.07368778,212.895490110311,5586.94715791853
6704.96469,0.000566324039540572,838840.278860329,213.499133060635,5592.26852573553
6704.97468,0.00056794201000398,839638.172640816,214.109093555223,5597.58781760544
6704.98468,0.00056957673827402,840435.755029243,214.725371594076,5602.90503352829
6704.99468,0.000571228224350693,841233.026025608,215.347967177193,5608.22017350405
6705.00468,0.000572896468233995,842029.985629912,215.976880304575,5613.53323753275
6705.01467,0.000574581469923929,842826.633842156,216.612110976221,5618.84422561438
6705.02467,0.000576283229420496,843622.970662338,217.253659192132,5624.15313774892
6705.03467,0.000578001746723694,844418.99609046,217.901524952307,5629.4599739364
6705.04467,0.000579737021833524,845214.71012652,218.555708256747,5634.7647341768
6705.05466,0.000581489054749984,846010.112770519,219.216209105451,5640.06741847013
6705.06466,0.000583257845473076,846805.204022458,219.883027498419,5645.36802681639
6705.07466,0.0005850433940028,847599.983882336,220.556163435652,5650.66655921557
6705.08466,0.000586845700339156,848394.452350152,221.23561691715,5655.96301566768
6705.09465,0.000588664764482142,849188.609425907,221.921387942911,5661.25739617272
6705.10465,0.000590500586431761,849982.455109601,222.613476512938,5666.54970073067
6705.11465,0.000592353166188011,850775.989401235,223.311882627229,5671.83992934157
6705.12464,0.000594222503750891,851569.212300807,224.016606285784,5677.12808200538
6705.13464,0.000596108599120404,852362.123808319,224.727647488604,5682.41415872212
6705.14464,0.000598011452296549,853154.723923769,225.445006235688,5687.69815949179
6705.15464,0.000599931063279325,853947.012647158,226.168682527037,5692.98008431439
6705.16463,0.000601867432068731,854738.989978487,226.89867636265,5698.25993318991
6705.17463,0.000603820558664771,855530.655917753,227.634987742527,5703.53770611836
6705.18463,0.000605790443067441,856322.01046496,228.37761666667,5708.81340309973
6705.19463,0.000607777085276742,857113.053620105,229.126563135076,5714.08702413403
6705.20462,0.000609780485292676,857903.785383189,229.881827147747,5719.35856922126
6705.21462,0.000611800643115241,858694.205754213,230.643408704682,5724.62803836142
6705.22462,0.000613837558744437,859484.314733175,231.411307805882,5729.8954315545
6705.23462,0.000615891232180266,860274.112320076,232.185524451347,5735.16074880051
6705.24461,0.000617961663422726,861063.598514917,232.966058641076,5740.42399009945
6705.25461,0.000620048852471815,861852.773317696,233.752910375068,5745.68515545131
6705.26461,0.000622152799327538,862641.636728414,234.546079653326,5750.94424485609
6705.27461,0.000624273503989893,863430.188747071,235.345566475849,5756.20125831381
6705.2846,0.000626410966458877,864218.429373667,236.151370842635,5761.45619582445
6705.2946,0.000628565186734496,865006.358608202,236.963492753687,5766.70905738802
6705.3046,0.000630736164816743,865793.976450676,237.781932209002,5771.95984300451
6705.3146,0.000632923900705623,866581.28290109,238.606689208582,5777.20855267393
6705.32459,0.000635128394401134,867368.277959442,239.437763752426,5782.45518639628
6705.33459,0.000637349645903278,868154.961625732,240.275155840535,5787.69974417155
6705.34459,0.000639587655212052,868941.333899963,241.118865472908,5792.94222599975
6705.35458,0.000641842422327458,869727.394782131,241.968892649546,5798.18263188087
6705.36458,0.000644113947249496,870513.14427224,242.825237370449,5803.42096181493
6705.37458,0.000646402229978164,871298.582370288,243.687899635615,5808.65721580192
6705.38458,0.000648707270513465,872083.709076274,244.556879445047,5813.89139384182
6705.39457,0.000651029068855397,872868.524390198,245.432176798742,5819.12349593466
6705.40457,0.00065336762500396,873653.028312062,246.313791696702,5824.35352208042
6705.41457,0.000655722938959156,874437.220841865,247.201724138927,5829.5814722791
6705.42457,0.000658095010720983,875221.101979607,248.095974125416,5834.80734653071
6705.43456,0.000660483840289441,876004.671725288,248.99654165617,5840.03114483526
6705.44456,0.000662889427664531,876787.930078909,249.903426731188,5845.25286719272
6705.45456,0.000665311772846252,877570.877040467,250.81662935047,5850.47251360312
6705.46456,0.000667750875834604,878353.512609965,251.736149514017,5855.69008406644
6705.47455,0.000670206736629589,879135.836787402,252.661987221829,5860.90557858268
6705.48455,0.000672679355231204,879917.849572779,253.594142473904,5866.11899715186
6705.49455,0.00067516873163945,880699.550966093,254.532615270244,5871.33033977395
6705.50455,0.00067767486585433,881480.940967347,255.477405610849,5876.53960644898
6705.51454,0.00068019775787584,882262.019576541,256.428513495719,5881.74679717694
6705.52454,0.000682737407703982,883042.786793672,257.385938924852,5886.95191195781
6705.53454,0.000685293815338755,883823.242618743,258.34968189825,5892.15495079162
6705.54454,0.000687866980780159,884603.387051753,259.319742415913,5897.35591367835
6705.55453,0.000690456904028196,885383.220092702,260.29612047784,5902.55480061801
6705.56453,0.000693063585082864,886162.74174159,261.278816084031,5907.7516116106
6705.57453,0.000695687023944163,886941.951998417,262.267829234487,5912.94634665611
6705.58453,0.000698327220612093,887720.850863183,263.263159929208,5918.13900575456
6705.59452,0.000700984175086656,888499.438335887,264.264808168193,5923.32958890591
6705.60452,0.000703657887367849,889277.714416531,265.272773951442,5928.51809611021
6705.61452,0.000706348357455674,890055.679105114,266.287057278956,5933.70452736743
6705.62451,0.000709055585350131,890833.332401636,267.307658150734,5938.88888267758
6705.63451,0.00071177957105122,891610.674306097,268.334576566777,5944.07116204065
6705.64451,0.00071452031455894,892387.704818497,269.367812527084,5949.25136545664
6705.65451,0.000717277815873291,893164.423938835,270.407366031656,5954.42949292557
6705.6645,0.000720052074994274,893940.831667113,271.453237080492,5959.60554444742
6705.6745,0.000722843091921889,894716.928003331,272.505425673592,5964.7795200222
6705.6845,0.000725650866656134,895492.712947486,273.563931810957,5969.95141964991
6705.6945,0.000728475399197011,896268.18649958,274.628755492587,5975.12124333054
6705.70449,0.000731316689544521,897043.348659615,275.699896718481,5980.2889910641
6705.71449,0.00073417473769866,897818.199427587,276.777355488639,5985.45466285058
6705.72449,0.000737049543659433,898592.738803499,277.861131803062,5990.61825868999
6705.73449,0.000739941107426835,899366.96678735,278.951225661749,5995.77977858233
6705.74448,0.000742849429000871,900140.883379139,280.047637064701,6000.93922252759
6705.75448,0.000745774508381538,900914.488578869,281.150366011917,6006.09659052579
6705.76448,0.000748716345568836,901687.782386536,282.259412503398,6011.25188257691
6705.77448,0.000751674940562765,902460.764802142,283.374776539143,6016.40509868095
6705.78447,0.000754650293363326,903233.435825689,284.496458119153,6021.55623883792
6705.79447,0.000757642403970518,904005.795457173,285.624457243427,6026.70530304782
6705.80447,0.000760651272384341,904777.843696597,286.758773911965,6031.85229131065
6705.81447,0.000763676898604798,905549.58054396,287.899408124769,6036.9972036264
6705.82446,0.000766719282631885,906321.005999261,289.046359881836,6042.14003999508
6705.83446,0.000769778424465603,907092.120062502,290.199629183168,6047.28080041668
6705.84446,0.000772854324105953,907862.922733681,291.359216028764,6052.41948489121
6705.85445,0.000775946981552936,908633.4140128,292.525120418625,6057.55609341867
6705.86445,0.000779056396806548,909403.593899858,293.69734235275,6062.69062599906
6705.87445,0.000782182569866793,910173.462394855,294.87588183114,6067.82308263236
6705.88445,0.000785325500733667,910943.01949779,296.060738853794,6072.9534633186
6705.89444,0.000788485189407177,911712.265208664,297.251913420713,6078.08176805776
6705.90444,0.000791661635887315,912481.199527478,298.449405531896,6083.20799684985
6705.91444,0.000794854840174085,913249.822454231,299.653215187343,6088.33214969487
6705.92444,0.000798064802267488,914018.133988922,300.863342387056,6093.45422659282
6705.93443,0.000801291522167521,914786.134131553,302.079787131032,6098.57422754369
6705.94443,0.000804534999874186,915553.822882123,303.302549419273,6103.69215254749
6705.95443,0.000807795235387484,916321.200240631,304.531629251779,6108.80800160421
6705.96443,0.000811072228707411,917088.266207079,305.767026628548,6113.92177471386
6705.97442,0.00081436597983397,917855.020781465,307.008741549583,6119.03347187643
6705.98442,0.000817676488767161,918621.46396379,308.256774014881,6124.14309309193
6705.99442,0.000821003755506984,919387.595754054,309.511124024445,6129.25063836036
6706.00442,0.000824347780053438,920153.41615226,310.771791578272,6134.35610768173
6706.01441,0.000827708562406524,920918.925158401,312.038776676365,6139.45950105601
6706.02441,0.000831086102566241,921684.122772483,313.312079318721,6144.56081848322
6706.03441,0.00083448040053259,922449.008994502,314.591699505342,6149.66005996335
6706.04441,0.000837891456305571,923213.583824462,315.877637236228,6154.75722549641
6706.0544,0.000841319269885182,923977.847262361,317.169892511378,6159.8523150824
6706.0644,0.000844763841271425,924741.799308198,318.468465330792,6164.94532872132
6706.0744,0.000848225170464301,925505.439961975,319.773355694472,6170.03626641316
6706.08439,0.000851703257463807,926268.76922369,321.084563602415,6175.12512815794
6706.09439,0.000855198102269944,927031.787093345,322.402089054623,6180.21191395563
6706.10439,0.000858709704882714,927794.493570937,323.725932051095,6185.29662380625
6706.11439,0.000862238065302115,928556.88865647,325.056092591832,6190.3792577098
6706.12438,0.000865783183528146,929318.972349941,326.392570676833,6195.45981566628
6706.13438,0.00086934505956081,930080.744651352,327.735366306099,6200.53829767568
6706.14438,0.000872923693400106,930842.205560701,329.084479479629,6205.61470373801
6706.15438,0.000876519085046032,931603.35507799,330.439910197423,6210.68903385327
6706.16437,0.000880131234498591,932364.193203217,331.801658459483,6215.76128802144
6706.17437,0.000883760141757781,933124.719936384,333.169724265806,6220.83146624256
6706.18437,0.000887405806823602,933884.935277488,334.544107616394,6225.89956851658
6706.19437,0.000891068229696055,934644.839226533,335.924808511247,6230.96559484355
6706.20436,0.000894747410375139,935404.431783516,337.311826950363,6236.02954522344
6706.21436,0.000898443348860856,936163.712948438,338.705162933745,6241.09141965625
6706.22436,0.000902156045153202,936922.6827213,340.104816461391,6246.151218142
6706.23436,0.000905885499252181,937681.3411021,341.510787533301,6251.20894068067
6706.24435,0.000909631711157791,938439.688090839,342.923076149476,6256.26458727226
6706.25435,0.000913394680870034,939197.723687518,344.341682309915,6261.31815791679
6706.26435,0.000917174408388908,939955.447892134,345.766606014619,6266.36965261423
6706.27435,0.000920970893714414,940712.860704691,347.197847263587,6271.4190713646
6706.28434,0.000924784136846549,941469.962125186,348.63540605682,6276.46641416791
6706.29434,0.000928614137785317,942226.752153621,350.079282394317,6281.51168102414
6706.30434,0.000932460896530717,942983.230789994,351.529476276078,6286.55487193329
6706.31434,0.000936324413082747,943739.398034306,352.985987702104,6291.59598689538
6706.32433,0.00094020468744141,944495.253886557,354.448816672395,6296.63502591038
6706.33433,0.000944101719606703,945250.798346747,355.917963186949,6301.67198897831
6706.34433,0.000948015509578631,946006.031414876,357.393427245769,6306.70687609918
6706.35432,0.000951946057357185,946760.953090945,358.875208848852,6311.73968727297
6706.36432,0.000955893362942374,947515.563374952,360.3633079962,6316.77042249968
6706.37432,0.000959857426334196,948269.862266898,361.857724687814,6321.79908177932
6706.38432,0.000963838247532646,949023.849766783,363.358458923691,6326.82566511189
6706.39431,0.000967835826537729,949777.525874608,364.865510703832,6331.85017249738
6706.40431,0.000971850163349444,950530.89059037,366.378880028239,6336.8726039358
6706.41431,0.00097588125796779,951283.943914072,367.898566896909,6341.89295942715
6706.42431,0.000979929110392767,952036.685845713,369.424571309844,6346.91123897142
6706.4343,0.000983993720624376,952789.116385293,370.956893267043,6351.92744256862
6706.4443,0.000988075088662617,953541.235532812,372.495532768507,6356.94157021875
6706.4543,0.000992173214507489,954293.04328827,374.040489814236,6361.9536219218
6706.4643,0.000996288098158993,955044.539651667,375.591764404229,6366.96359767778
6706.47429,0.00100041973961713,955795.724623003,377.149356538486,6371.97149748669
6706.48429,0.00100456813888189,956546.598202279,378.713266217008,6376.97732134853
6706.49429,0.00100873329595329,957297.160389493,380.283493439794,6381.98106926328
6706.50429,0.00101291521083132,958047.411184646,381.860038206845,6386.98274123097
6706.51428,0.00101711388351598,958797.350587736,383.44290051816,6391.98233725157
6706.52428,0.00102132931400728,959546.978598769,385.03208037374,6396.97985732513
6706.53428,0.0010255615023052,960296.295217738,386.627577773583,6401.97530145159
6706.54428,0.00102981044840976,961045.300444647,388.229392717692,6406.96866963098
6706.55427,0.00103407615232094,961793.994279495,389.837525206065,6411.9599618633
6706.56427,0.00103835861403876,962542.376722282,391.451975238702,6416.94917814855
6706.57427,0.00104265783356321,963290.447773009,393.072742815605,6421.93631848672
6706.58426,0.00104697381089429,964038.207431673,394.699827936771,6426.92138287782
6706.59426,0.00105130654603201,964785.655698278,396.333230602202,6431.90437132186
6706.60426,0.00105565603897635,965532.79257282,397.972950811898,6436.8852838188
6706.61426,0.00106002228972733,966279.618055302,399.618988565857,6441.86412036868
6706.62425,0.00106440529828494,967026.132145723,401.271343864081,6446.84088097149
6706.63425,0.00106880506464918,967772.334844083,402.93001670657,6451.81556562722
6706.64425,0.00107322158882005,968518.226150382,404.595007093322,6456.78817433588
6706.65425,0.00107765487079755,969263.80606462,406.26631502434,6461.75870709747
6706.66424,0.00108210491058168,970009.074586796,407.943940499623,6466.72716391198
6706.67424,0.00108657170817245,970754.031716912,409.627883519169,6471.69354477942
6706.68424,0.00109105526356984,971498.677454968,411.31814408298,6476.65784969978
6706.69424,0.00109555557677387,972243.011800961,413.014722191055,6481.62007867307
6706.70423,0.00110007264778453,972987.034754894,414.717617843395,6486.58023169929
6706.71423,0.00110460647660182,973730.746316766,416.42683104,6491.53830877844
6706.72423,0.00110915706322575,974474.146486576,418.142361780869,6496.49430991051
6706.73423,0.0011137244076563,975217.235264327,419.864210066002,6501.44823509551
6706.74422,0.00111830850989349,975960.012650016,421.592375895399,6506.40008433344
6706.75422,0.0011229093699373,976702.478643644,423.326859269061,6511.34985762429
6706.76422,0.00112752698778775,977444.633245209,425.067660186989,6516.29755496806
6706.77422,0.00113216136344484,978186.476454716,426.81477864918,6521.24317636477
6706.78421,0.00113681249690855,978928.00827216,428.568214655635,6526.1867218144
6706.79421,0.00114148038817889,979669.228697543,430.327968206355,6531.12819131695
6706.80421,0.00114616503725587,980410.137730867,432.09403930134,6536.06758487245
6706.81421,0.00115086644413947,981150.735372128,433.866427940589,6541.00490248085
6706.8242,0.00115558460882971,981891.021621329,435.645134124102,6545.94014414219
6706.8342,0.00116031953132658,982630.996478469,437.43015785188,6550.87330985646
6706.8442,0.00116507121163008,983370.659943548,439.221499123922,6555.80439962365
6706.85419,0.00116983964974021,984110.012016564,441.019157940229,6560.73341344376
6706.86419,0.00117462484565698,984849.052697522,442.8231343008,6565.66035131682
6706.87419,0.00117942679938037,985587.781986418,444.633428205636,6570.58521324279
6706.88419,0.0011842455109104,986326.199883253,446.450039654736,6575.50799922169
6706.89418,0.00118908098024706,987064.306388026,448.272968648101,6580.4287092535
