Time,Velocity,Pressure,Gamma,Tau
3102.57239,2.01840493869311,231252.634090539,3212.39123154102,3083.36845454052
3102.58239,2.02264197484573,231506.727008257,3219.13468401851,3086.7563601101
3102.59239,2.02691191745396,231761.021914306,3225.9305087467,3090.14695885741
3102.60239,2.03121476651779,232015.518808685,3232.77870572557,3093.54025078246
3102.61238,2.03555052203722,232270.217691394,3239.67927495511,3096.93623588526
3102.62238,2.03991918401225,232525.118562435,3246.63221643535,3100.33491416579
3102.63238,2.04432075244287,232780.221421805,3253.63753016626,3103.73628562406
3102.64238,2.0487552273291,233035.526269506,3260.69521614786,3107.14035026008
3102.65237,2.05322260867093,233291.033105537,3267.80527438015,3110.54710807383
3102.66237,2.05772289646836,233546.741929899,3274.96770486312,3113.95655906532
3102.67237,2.06225609072139,233802.652742592,3282.18250759677,3117.36870323456
3102.68237,2.06682219143001,234058.765543615,3289.4496825811,3120.78354058153
3102.69236,2.07142119859424,234315.080332968,3296.76922981613,3124.20107110624
3102.70236,2.07605311221407,234571.597110652,3304.14114930183,3127.62129480869
3102.71236,2.0807179322895,234828.315876666,3311.56544103822,3131.04421168888
3102.72236,2.08541565882053,235085.236631011,3319.04210502529,3134.46982174681
3102.73235,2.09014629180716,235342.359373686,3326.57114126304,3137.89812498249
3102.74235,2.09490983124938,235599.684104692,3334.15254975148,3141.3291213959
3102.75235,2.09970627714721,235857.210824028,3341.7863304906,3144.76281098705
3102.76235,2.10453562950064,236114.939531695,3349.47248348041,3148.19919375594
3102.77234,2.10939788830967,236372.870227693,3357.2110087209,3151.63826970257
3102.78234,2.1142930535743,236631.00291202,3365.00190621207,3155.08003882694
3102.79234,2.11922112529453,236889.337584679,3372.84517595393,3158.52450112905
3102.80234,2.12418210347036,237147.874245668,3380.74081794648,3161.9716566089
3102.81233,2.12917598810179,237406.612894987,3388.6888321897,3165.42150526649
3102.82233,2.13420277918882,237665.553532636,3396.68921868361,3168.87404710182
3102.83233,2.13926247673145,237924.696158617,3404.7419774282,3172.32928211489
3102.84232,2.14435508072967,238184.040772927,3412.84710842348,3175.7872103057
3102.85232,2.1494805911835,238443.587375569,3421.00461166944,3179.24783167425
3102.86232,2.15463900809293,238703.33596654,3429.21448716608,3182.71114622054
3102.87232,2.15983033145796,238963.286545842,3437.47673491341,3186.17715394457
3102.88231,2.16505456127859,239223.439113475,3445.79135491143,3189.64585484634
3102.89231,2.17031169755482,239483.793669438,3454.15834716012,3193.11724892584
3102.90231,2.17560174028665,239744.350213732,3462.5777116595,3196.59133618309
3102.91231,2.18092468947408,240005.108746356,3471.04944840956,3200.06811661808
3102.9223,2.18628054511711,240266.069267311,3479.57355741031,3203.54759023081
3102.9323,2.19166930721574,240527.231776596,3488.15003866174,3207.02975702128
3102.9423,2.19709097576997,240788.596274212,3496.77889216386,3210.51461698949
3102.9523,2.2025455507798,241050.162760158,3505.46011791666,3214.00217013543
3102.96229,2.20803303224523,241311.931234434,3514.19371592014,3217.49241645912
3102.97229,2.21355342016626,241573.901697041,3522.97968617431,3220.98535596055
3102.98229,2.21910671454289,241836.074147979,3531.81802867916,3224.48098863972
3102.99229,2.22469291537512,242098.448587247,3540.70874343469,3227.97931449662
3103.00228,2.23031202266295,242361.025014845,3549.65183044091,3231.48033353127
3103.01228,2.23596403640638,242623.803430774,3558.64728969781,3234.98404574365
3103.02228,2.24164895660541,242886.783835034,3567.6951212054,3238.49045113378
3103.03228,2.24736678326004,243149.966227624,3576.79532496367,3241.99954970165
3103.04227,2.25311751637027,243413.350608544,3585.94790097263,3245.51134144726
3103.05227,2.2589011559361,243676.936977795,3595.15284923226,3249.0258263706
3103.06227,2.26471770195753,243940.725335377,3604.41016974259,3252.54300447169
3103.07226,2.27056715443456,244204.715681289,3613.71986250359,3256.06287575052
3103.08226,2.27644951336719,244468.908015531,3623.08192751528,3259.58544020708
3103.09226,2.28236477875542,244733.302338104,3632.49636477765,3263.11069784138
3103.10226,2.28831295059925,244997.898649007,3641.96317429071,3266.63864865343
3103.11225,2.29429402889868,245262.696948241,3651.48235605445,3270.16929264322
3103.12225,2.30030801365371,245527.697235806,3661.05391006887,3273.70262981074
3103.13225,2.30635490486434,245792.8995117,3670.67783633398,3277.23866015601
3103.14225,2.31243470253057,246058.303775926,3680.35413484977,3280.77738367901
3103.15224,2.3185474066524,246323.910028482,3690.08280561625,3284.31880037976
3103.16224,2.32469301722983,246589.718269368,3699.8638486334,3287.86291025824
3103.17224,2.33087153426287,246855.728498585,3709.69726390125,3291.40971331446
3103.18224,2.3370829577515,247121.940716132,3719.58305141978,3294.95920954843
3103.19223,2.34332728769572,247388.35492201,3729.52121118899,3298.51139896013
3103.20223,2.34960452409556,247654.971116218,3739.51174320888,3302.06628154958
3103.21223,2.35591466695099,247921.789298757,3749.55464747946,3305.62385731676
3103.22223,2.36225771626202,248188.809469626,3759.64992400073,3309.18412626168
3103.23222,2.36863367202865,248456.031628826,3769.79757277267,3312.74708838435
3103.24222,2.37504253425088,248723.455776356,3779.9975937953,3316.31274368475
3103.25222,2.38148430292871,248991.081912217,3790.24998706862,3319.88109216289
3103.26222,2.38795897806215,249258.910036408,3800.55475259261,3323.45213381877
3103.27221,2.39446655965118,249526.94014893,3810.9118903673,3327.0258686524
3103.28221,2.40100704769581,249795.172249782,3821.32140039266,3330.60229666376
3103.29221,2.40758044219604,250063.606338965,3831.78328266871,3334.18141785286
3103.30221,2.41418674315187,250332.242416478,3842.29753719544,3337.7632322197
3103.3122,2.4208259505633,250601.080482322,3852.86416397286,3341.34773976429
3103.3222,2.42749806443034,250870.120536496,3863.48316300096,3344.93494048661
3103.3322,2.43420308475297,251139.362579,3874.15453427974,3348.52483438667
3103.34219,2.4409410115312,251408.806609835,3884.87827780921,3352.11742146447
3103.35219,2.44771184476503,251678.452629001,3895.65439358937,3355.71270172001
3103.36219,2.45451558445446,251948.300636497,3906.4828816202,3359.31067515329
3103.37219,2.46135223059949,252218.350632324,3917.36374190172,3362.91134176432
3103.38218,2.46822178320013,252488.602616481,3928.29697443393,3366.51470155308
3103.39218,2.47512424225636,252759.056588968,3939.28257921681,3370.12075451958
3103.40218,2.48205960776819,253029.712549786,3950.32055625038,3373.72950066382
3103.41218,2.48902787973562,253300.570498935,3961.41090553464,3377.3409399858
3103.42217,2.49602905815865,253571.630436414,3972.55362706958,3380.95507248552
3103.43217,2.50306314303729,253842.892362223,3983.7487208552,3384.57189816298
3103.44217,2.51013013437152,254114.356276363,3994.99618689151,3388.19141701818
3103.45217,2.51723003216135,254386.022178834,4006.2960251785,3391.81362905112
3103.46216,2.52436283640678,254657.890069635,4017.64823571617,3395.4385342618
3103.47216,2.53152854710781,254929.959948766,4029.05281850453,3399.06613265022
3103.48216,2.53872716426445,255202.231816228,4040.50977354357,3402.69642421638
3103.49216,2.54595868787668,255474.705672021,4052.0191008333,3406.32940896027
3103.50215,2.55322311794451,255747.381516144,4063.58080037371,3409.96508688191
3103.51215,2.56052045446795,256020.259348597,4075.1948721648,3413.60345798129
3103.52215,2.56785069744698,256293.339169381,4086.86131620658,3417.24452225841
3103.53215,2.57521384688161,256566.620978495,4098.58013249904,3420.88827971327
3103.54214,2.58260990277185,256840.10477594,4110.35132104218,3424.53473034587
3103.55214,2.59003886511768,257113.790561716,4122.17488183601,3428.18387415621
3103.56214,2.59750073391911,257387.678335821,4134.05081488052,3431.83571114429
3103.57213,2.60499550917614,257661.768098258,4145.97912017572,3435.4902413101
3103.58213,2.61252319088878,257936.059849024,4157.9597977216,3439.14746465366
3103.59213,2.62008377905701,258210.553588122,4169.99284751817,3442.80738117496
3103.60213,2.62767727368084,258485.249315549,4182.07826956541,3446.46999087399
3103.61212,2.63530367476028,258760.147031308,4194.21606386335,3450.13529375077
3103.62212,2.64296298229531,259035.246735397,4206.40623041196,3453.80328980529
3103.63212,2.65065519628594,259310.548427816,4218.64876921126,3457.47397903754
3103.64212,2.65838031673217,259586.052108566,4230.94368026124,3461.14736144754
3103.65211,2.66613834363401,259861.757777646,4243.29096356191,3464.82343703528
3103.66211,2.67392927699144,260137.665435056,4255.69061911326,3468.50220580075
3103.67211,2.68175311680448,260413.775080798,4268.14264691529,3472.18366774397
3103.68211,2.68960986307311,260690.08671487,4280.64704696801,3475.86782286493
3103.6921,2.69749951579734,260966.600337272,4293.20381927142,3479.55467116362
3103.7021,2.70542207497718,261243.315948005,4305.8129638255,3483.24421264006
3103.7121,2.71337754061261,261520.233547068,4318.47448063027,3486.93644729424
3103.7221,2.72136591270365,261797.353134461,4331.18836968573,3490.63137512615
3103.73209,2.72938719125028,262074.674710185,4343.95463099186,3494.32899613581
3103.74209,2.73744137625251,262352.19827424,4356.77326454868,3498.0293103232
3103.75209,2.74552846771035,262629.923826625,4369.64427035619,3501.73231768834
3103.76209,2.75364846562378,262907.851367341,4382.56764841438,3505.43801823121
3103.77208,2.76180136999281,263185.980896387,4395.54339872325,3509.14641195183
3103.78208,2.76998718081745,263464.312413763,4408.57152128281,3512.85749885018
3103.79208,2.77820589809768,263742.845919471,4421.65201609305,3516.57127892628
3103.80207,2.78645752183352,264021.581413508,4434.78488315397,3520.28775218011
3103.81207,2.79474205202495,264300.518895876,4447.97012246558,3524.00691861168
3103.82207,2.80305948867199,264579.658366575,4461.20773402787,3527.728778221
3103.83207,2.81140983177462,264858.999825604,4474.49771784085,3531.45333100805
3103.84206,2.81979308133286,265138.543272963,4487.84007390451,3535.18057697284
3103.85206,2.82820923734669,265418.288708653,4501.23480221885,3538.91051611537
3103.86206,2.83665829981612,265698.236132674,4514.68190278388,3542.64314843565
3103.87206,2.84514026874116,265978.385545025,4528.18137559959,3546.37847393366
3103.88205,2.85365514412179,266258.736945706,4541.73322066598,3550.11649260942
3103.89205,2.86220292595803,266539.290334718,4555.33743798306,3553.85720446291
3103.90205,2.87078361424986,266820.04571206,4568.99402755082,3557.60060949414
3103.91205,2.8793972089973,267101.003077733,4582.70298936927,3561.34670770311
3103.92204,2.88804371020033,267382.162431737,4596.4643234384,3565.09549908982
3103.93204,2.89672311785897,267663.523774071,4610.27802975822,3568.84698365428
3103.94204,2.9054354319732,267945.087104735,4624.14410832871,3572.60116139647
3103.95204,2.91418065254304,268226.85242373,4638.06255914989,3576.3580323164
3103.96203,2.92295877956847,268508.819731055,4652.03338222176,3580.11759641407
3103.97203,2.93176981304951,268790.989026711,4666.05657754431,3583.87985368948
3103.98203,2.94061375298614,269073.360310697,4680.13214511754,3587.64480414263
3103.99203,2.94949059937838,269355.933583014,4694.26008494146,3591.41244777353
3104.00202,2.95840035222621,269638.708843662,4708.44039701606,3595.18278458216
3104.01202,2.96734301152965,269921.686092639,4722.67308134135,3598.95581456853
3104.02202,2.97631857728868,270204.865329948,4736.95813791731,3602.73153773264
3104.03202,2.98532704950332,270488.246555587,4751.29556674397,3606.50995407449
3104.04201,2.99436842817355,270771.829769556,4765.6853678213,3610.29106359408
3104.05201,3.00344271329939,271055.614971855,4780.12754114932,3614.07486629141
3104.06201,3.01254990488083,271339.602162486,4794.62208672803,3617.86136216648
3104.072,3.02169000291786,271623.791341447,4809.16900455741,3621.65055121929
3104.082,3.0308630074105,271908.182508738,4823.76829463748,3625.44243344984
3104.092,3.04006891835873,272192.77566436,4838.41995696824,3629.23700885813
3104.102,3.04930773576257,272477.570808312,4853.12399154968,3633.03427744416
3104.11199,3.05857945962201,272762.567940594,4867.8803983818,3636.83423920792
3104.12199,3.06788408993704,273047.767061208,4882.68917746461,3640.63689414943
3104.13199,3.07722162670768,273333.168170151,4897.5503287981,3644.44224226868
3104.14199,3.08659206993391,273618.771267425,4912.46385238227,3648.25028356567
3104.15198,3.09599541961575,273904.57635303,4927.42974821713,3652.0610180404
3104.16198,3.10543167575318,274190.583426965,4942.44801630267,3655.87444569287
3104.17198,3.11490083834622,274476.79248923,4957.5186566389,3659.69056652307
3104.18198,3.12440290739486,274763.203539827,4972.64166922581,3663.50938053102
3104.19197,3.13393788289909,275049.816578753,4987.8170540634,3667.33088771671
3104.20197,3.14350576485893,275336.63160601,5003.04481115168,3671.15508808014
3104.21197,3.15310655327437,275623.648621598,5018.32494049064,3674.98198162131
3104.22197,3.1627402481454,275910.867625516,5033.65744208029,3678.81156834022
3104.23196,3.17240684947204,276198.288617764,5049.04231592061,3682.64384823686
3104.24196,3.18210635725428,276485.911598344,5064.47956201163,3686.47882131125
3104.25196,3.19183877149211,276773.736567253,5079.96918035333,3690.31648756338
3104.26196,3.20160409218555,277061.763524493,5095.5111709457,3694.15684699324
3104.27195,3.21140231933459,277349.992470064,5111.10553378877,3697.99989960085
3104.28195,3.22123345293922,277638.423403965,5126.75226888251,3701.84564538619
3104.29195,3.23109749299946,277927.056326196,5142.45137622695,3705.69408434928
3104.30194,3.24099443951529,278215.891236758,5158.20285582206,3709.54521649011
3104.31194,3.25092429248673,278504.92813565,5174.00670766786,3713.39904180867
3104.32194,3.26088705191377,278794.167022874,5189.86293176435,3717.25556030498
3104.33194,3.27088271779641,279083.607898427,5205.77152811151,3721.11477197903
3104.34193,3.28091129013465,279373.250762311,5221.73249670936,3724.97667683081
3104.35193,3.29097276892848,279663.095614525,5237.7458375579,3728.84127486034
3104.36193,3.30106715417792,279953.14245507,5253.81155065712,3732.7085660676
3104.37193,3.31119444588296,280243.391283945,5269.92963600702,3736.5785504526
3104.38192,3.32135464404359,280533.842101151,5286.10009360761,3740.45122801535
3104.39192,3.33154774865983,280824.494906687,5302.32292345888,3744.32659875583
3104.40192,3.34177375973167,281115.349700554,5318.59812556083,3748.20466267406
3104.41192,3.35203267725911,281406.406482752,5334.92569991347,3752.08541977002
3104.42191,3.36232450124215,281697.66525328,5351.30564651679,3755.96887004373
3104.43191,3.37264923168078,281989.126012138,5367.73796537079,3759.85501349517
3104.44191,3.38300686857502,282280.788759327,5384.22265647548,3763.74385012435
3104.45191,3.39339741192486,282572.653494846,5400.75971983085,3767.63537993128
3104.4619,3.4038208617303,282864.720218696,5417.34915543691,3771.52960291594
3104.4719,3.41427721799133,283156.988930876,5433.99096329365,3775.42651907834
3104.4819,3.42476648070797,283449.459631387,5450.68514340108,3779.32612841849
3104.4919,3.43528864988021,283742.132320228,5467.43169575918,3783.22843093637
3104.50189,3.44584372550805,284035.006997399,5484.23062036798,3787.13342663199
3104.51189,3.45643170759148,284328.083662902,5501.08191722745,3791.04111550536
3104.52189,3.46705259613052,284621.362316734,5517.98558633761,3794.95149755646
3104.53188,3.47770639112516,284914.842958897,5534.94162769845,3798.8645727853
3104.54188,3.4883930925754,285208.525589391,5551.95004130998,3802.78034119188
3104.55188,3.49911270048124,285502.410208215,5569.01082717219,3806.69880277621
3104.56188,3.50986521484267,285796.49681537,5586.12398528509,3810.61995753827
3104.57187,3.52065063565971,286090.785410855,5603.28951564867,3814.54380547807
3104.58187,3.53146896293235,286385.275994671,5620.50741826293,3818.47034659561
3104.59187,3.54232019666059,286679.968566817,5637.77769312787,3822.3995808909
3104.60187,3.55320433684443,286974.863127294,5655.10034024351,3826.33150836391
3104.61186,3.56412138348387,287269.959676101,5672.47535960982,3830.26612901468
3104.62186,3.5750713365789,287565.258213238,5689.90275122681,3834.20344284317
3104.63186,3.58605419612955,287860.758738706,5707.3825150945,3838.14344984942
3104.64186,3.59706996213578,288156.461252505,5724.91465121287,3842.0861500334
3104.65185,3.60811863459762,288452.365754634,5742.49915958191,3846.03154339512
3104.66185,3.61920021351506,288748.472245093,5760.13604020165,3849.97962993458
3104.67185,3.6303146988881,289044.780723883,5777.82529307207,3853.93040965178
3104.68185,3.64146209071674,289341.291191004,5795.56691819317,3857.88388254672
3104.69184,3.65264238900098,289638.003646455,5813.36091556495,3861.8400486194
3104.70184,3.66385559374082,289934.918090236,5831.20728518742,3865.79890786981
3104.71184,3.67510170493626,290232.034522348,5849.10602706057,3869.76046029797
3104.72184,3.68638072258729,290529.352942791,5867.05714118441,3873.72470590388
3104.73183,3.69769264669393,290826.873351564,5885.06062755893,3877.69164468751
3104.74183,3.70903747725618,291124.595748667,5903.11648618414,3881.66127664889
3104.75183,3.72041521427401,291422.520134101,5921.22471706002,3885.63360178801
3104.76183,3.73182585774745,291720.646507865,5939.38532018659,3889.60862010487
3104.77182,3.74326940767649,292018.97486996,5957.59829556384,3893.58633159947
3104.78182,3.75474586406113,292317.505220386,5975.86364319178,3897.56673627181
3104.79182,3.76625522690137,292616.237559142,5994.18136307041,3901.54983412189
3104.80181,3.77779749619721,292915.171886228,6012.55145519971,3905.5356251497
3104.81181,3.78937267194865,293214.308201644,6030.97391957971,3909.52410935526
3104.82181,3.80098075415569,293513.646505392,6049.44875621038,3913.51528673856
3104.83181,3.81262174281833,293813.18679747,6067.97596509174,3917.5091572996
3104.8418,3.82429563793657,294112.929077878,6086.55554622378,3921.50572103837
3104.8518,3.83600243951041,294412.873346617,6105.18749960651,3925.50497795489
3104.8618,3.84774214753985,294713.019603686,6123.87182523991,3929.50692804915
3104.8718,3.85951476202489,295013.367849086,6142.60852312401,3933.51157132115
3104.88179,3.87132028296553,295313.918082816,6161.39759325879,3937.51890777088
3104.89179,3.88315871036177,295614.670304877,6180.23903564425,3941.52893739836
3104.90179,3.89503004421361,295915.624515268,6199.13285028039,3945.54166020357
3104.91179,3.90693428452105,296216.78071399,6218.07903716722,3949.55707618653
3104.92178,3.91887143128409,296518.138901042,6237.07759630474,3953.57518534722
3104.93178,3.93084148450273,296819.699076425,6256.12852769293,3957.59598768566
3104.94178,3.94284444417697,297121.461240138,6275.23183133181,3961.61948320184
3104.95178,3.95488031030681,297423.425392182,6294.38750722138,3965.64567189576
3104.96177,3.96694908289225,297725.591532556,6313.59555536162,3969.67455376741
3104.97177,3.97905076193329,298027.959661261,6332.85597575255,3973.70612881681
3104.98177,3.99118534742993,298330.529778295,6352.16876839417,3977.74039704394
3104.99177,4.00335283938217,298633.301883661,6371.53393328647,3981.77735844882
3105.00176,4.01555323779001,298936.275977357,6390.95147042945,3985.81701303143
3105.01176,4.02778654265345,299239.452059384,6410.42137982312,3989.85936079179
3105.02176,4.04005275397249,299542.830129741,6429.94366146747,3993.90440172988
3105.03175,4.05235187174713,299846.410188428,6449.5183153625,3997.95213584571
3105.04175,4.06468389597738,300150.192235447,6469.14534150823,4002.00256313929
3105.05175,4.07704882666321,300454.176270795,6488.82473990462,4006.0556836106
3105.06175,4.08944666380466,300758.362294474,6508.55651055171,4010.11149725965
3105.07174,4.1018774074017,301062.750306484,6528.34065344948,4014.17000408645
3105.08174,4.11434105745434,301367.340306824,6548.17716859794,4018.23120409098
3105.09174,4.12683761396258,301672.132295494,6568.06605599707,4022.29509727326
3105.10174,4.13936707692642,301977.126272495,6588.0073156469,4026.36168363327
