Time,Velocity,Pressure,Gamma,Tau
5785.55401,1.47561929633719,572662.99768396,2348.52105133847,7635.50663578614
5785.56401,1.47661716388701,572969.873414601,2350.10920686953,7639.59831219468
5785.57401,1.47762807057638,573276.723616761,2351.71811483571,7643.68964822348
5785.584,1.47865201640531,573583.54829044,2353.34777523704,7647.78064387253
5785.594,1.47968900137379,573890.347435637,2354.99818807349,7651.87129914183
5785.604,1.48073902548182,574197.121052354,2356.66935334507,7655.96161403139
5785.61399,1.4818020887294,574503.869140591,2358.36127105179,7660.05158854121
5785.62399,1.48287819111653,574810.591700346,2360.07394119364,7664.14122267128
5785.63399,1.48396733264321,575117.28873162,2361.80736377062,7668.2305164216
5785.64399,1.48506951330945,575423.960234414,2363.56153878274,7672.31946979219
5785.65398,1.48618473311524,575730.606208727,2365.33646622999,7676.40808278302
5785.66398,1.48731299206058,576037.226654559,2367.13214611238,7680.49635539412
5785.67398,1.48845429014546,576343.82157191,2368.94857842989,7684.58428762547
5785.68398,1.48960862736991,576650.39096078,2370.78576318254,7688.67187947707
5785.69397,1.4907760037339,576956.93482117,2372.64370037031,7692.75913094893
5785.70397,1.49195641923744,577263.453153078,2374.52238999323,7696.84604204103
5785.71397,1.49314987388054,577569.945956505,2376.42183205128,7700.9326127534
5785.72397,1.49435636766318,577876.413231452,2378.34202654446,7705.01884308603
5785.73396,1.49557590058538,578182.854977918,2380.28297347277,7709.1047330389
5785.74396,1.49680847264713,578489.271195902,2382.24467283621,7713.19028261203
5785.75396,1.49805408384844,578795.661885407,2384.22712463479,7717.27549180542
5785.76396,1.49931273418929,579102.02704643,2386.2303288685,7721.36036061906
5785.77395,1.50058442366969,579408.366678972,2388.25428553735,7725.44488905296
5785.78395,1.50186915228965,579714.680783034,2390.29899464132,7729.52907710711
5785.79395,1.50316692004916,580020.969358614,2392.36445618043,7733.61292478152
5785.80395,1.50447772694822,580327.232405714,2394.45067015467,7737.69643207619
5785.81394,1.50580157298682,580633.469924333,2396.55763656405,7741.77959899111
5785.82394,1.50713845816499,580939.681914471,2398.68535540855,7745.86242552628
5785.83394,1.5084883824827,581245.868376128,2400.8338266882,7749.94491168171
5785.84394,1.50985134593996,581552.029309304,2403.00305040296,7754.02705745739
5785.85393,1.51122734853678,581858.164714,2405.19302655287,7758.10886285333
5785.86393,1.51261639027315,582164.274590214,2407.40375513791,7762.19032786952
5785.87393,1.51401847114907,582470.358937948,2409.63523615808,7766.27145250598
5785.88392,1.51543359116454,582776.417757201,2411.88746961339,7770.35223676268
5785.89392,1.51686175031956,583082.451047972,2414.16045550382,7774.43268063963
5785.90392,1.51830294861413,583388.458810263,2416.45419382939,7778.51278413685
5785.91392,1.51975718604826,583694.441044074,2418.76868459009,7782.59254725432
5785.92391,1.52122446262193,584000.397749403,2421.10392778593,7786.67196999204
5785.93391,1.52270477833516,584306.328926251,2423.4599234169,7790.75105235002
5785.94391,1.52419813318794,584612.234574619,2425.836671483,7794.82979432826
5785.95391,1.52570452718027,584918.114694505,2428.23417198423,7798.90819592674
5785.9639,1.52722396031216,585223.969285911,2430.6524249206,7802.98625714548
5785.9739,1.52875643258359,585529.798348836,2433.0914302921,7807.06397798449
5785.9839,1.53030194399457,585835.60188328,2435.55118809873,7811.14135844374
5785.9939,1.53186049454511,586141.379889244,2438.0316983405,7815.21839852325
5786.00389,1.5334320842352,586447.132366726,2440.5329610174,7819.29509822302
5786.01389,1.53501671306484,586752.859315727,2443.05497612943,7823.37145754303
5786.02389,1.53661438103403,587058.560736249,2445.59774367659,7827.44747648331
5786.03389,1.53822508814277,587364.236628288,2448.16126365889,7831.52315504384
5786.04388,1.53984883439107,587669.886991847,2450.74553607632,7835.59849322462
5786.05388,1.54148561977891,587975.511826925,2453.35056092888,7839.67349102566
5786.06388,1.54313544430631,588281.111133522,2455.97633821657,7843.74814844696
5786.07388,1.54479830797326,588586.684911638,2458.6228679394,7847.82246548851
5786.08387,1.54647421077976,588892.233161273,2461.29015009736,7851.89644215031
5786.09387,1.54816315272581,589197.755882428,2463.97818469045,7855.97007843238
5786.10387,1.54986513381141,589503.253075102,2466.68697171868,7860.04337433469
5786.11386,1.55158015403657,589808.724739295,2469.41651118204,7864.11632985727
5786.12386,1.55330821340127,590114.170875006,2472.16680308053,7868.18894500008
5786.13386,1.55504931190553,590419.591482238,2474.93784741415,7872.26121976317
5786.14386,1.55680344954934,590724.986560988,2477.72964418291,7876.3331541465
5786.15385,1.5585706263327,591030.356111257,2480.5421933868,7880.40474815009
5786.16385,1.56035084225561,591335.700133045,2483.37549502583,7884.47600177393
5786.17385,1.56214409731807,591641.018626353,2486.22954909998,7888.54691501804
5786.18385,1.56395039152009,591946.311591179,2489.10435560927,7892.61748788239
5786.19384,1.56576972486165,592251.579027526,2491.99991455369,7896.68772036701
5786.20384,1.56760209734277,592556.82093539,2494.91622593325,7900.75761247187
5786.21384,1.56944750896344,592862.037314775,2497.85328974793,7904.827164197
5786.22384,1.57130595972366,593167.228165678,2500.81110599775,7908.89637554237
5786.23383,1.57317744962343,593472.393488101,2503.78967468271,7912.96524650801
5786.24383,1.57506197866276,593777.533282041,2506.78899580279,7917.03377709389
5786.25383,1.57695954684163,594082.647547502,2509.80906935801,7921.10196730003
5786.26383,1.57887015416006,594387.736284482,2512.84989534836,7925.16981712643
5786.27382,1.58079380061804,594692.799492981,2515.91147377385,7929.23732657308
5786.28382,1.58273048621556,594997.837172999,2518.99380463446,7933.30449563998
5786.29382,1.58468021095265,595302.849324536,2522.09688793021,7937.37132432715
5786.30382,1.58664297482928,595607.835947592,2525.22072366109,7941.43781263456
5786.31381,1.58861877784546,595912.797042168,2528.36531182711,7945.50396056223
5786.32381,1.5906076200012,596217.732608262,2531.53065242826,7949.56976811017
5786.33381,1.59260950129649,596522.642645876,2534.71674546454,7953.63523527835
5786.3438,1.59462442173132,596827.527155009,2537.92359093595,7957.70036206679
5786.3538,1.59665238130571,597132.386135661,2541.1511888425,7961.76514847548
5786.3638,1.59869338001965,597437.219587832,2544.39953918418,7965.82959450442
5786.3738,1.60074741787315,597742.027511523,2547.66864196099,7969.89370015363
5786.38379,1.60281449486619,598046.809906731,2550.95849717293,7973.95746542309
5786.39379,1.60489461099879,598351.56677346,2554.26910482001,7978.0208903128
5786.40379,1.60698776627093,598656.298111707,2557.60046490223,7982.08397482277
5786.41379,1.60909396068263,598961.003921474,2560.95257741957,7986.14671895299
5786.42378,1.61121319423388,599265.68420276,2564.32544237205,7990.20912270347
5786.43378,1.61334546692468,599570.338955565,2567.71905975965,7994.2711860742
5786.44378,1.61549077875504,599874.968179889,2571.13342958239,7998.33290906519
5786.45378,1.61764912972494,600179.571875732,2574.56855184027,8002.39429167643
5786.46377,1.61982051983439,600484.150043095,2578.02442653327,8006.45533390793
5786.47377,1.6220049490834,600788.702681976,2581.50105366141,8010.51603575968
5786.48377,1.62420241747196,601093.229792377,2584.99843322469,8014.57639723169
5786.49377,1.62641292500007,601397.731374297,2588.51656522309,8018.63641832396
5786.50376,1.62863647166773,601702.207427736,2592.05544965663,8022.69609903648
5786.51376,1.63087305747495,602006.657952694,2595.6150865253,8026.75543936925
5786.52376,1.63312268242171,602311.082949171,2599.19547582911,8030.81443932228
5786.53376,1.63538534650803,602615.482417167,2602.79661756805,8034.87309889556
5786.54375,1.6376610497339,602919.856356682,2606.41851174212,8038.9314180891
5786.55375,1.63994979209931,603224.204767716,2610.06115835132,8042.98939690289
5786.56375,1.64225157360428,603528.527650271,2613.72455739565,8047.04703533694
5786.57375,1.64456639424881,603832.825004343,2617.40870887512,8051.10433339124
5786.58374,1.64689425403288,604137.096829936,2621.11361278972,8055.16129106581
5786.59374,1.6492351529565,604441.343127046,2624.83926913946,8059.21790836062
5786.60374,1.65158909101968,604745.563895677,2628.58567792433,8063.27418527569
5786.61373,1.65395606822241,605049.759135826,2632.35283914432,8067.33012181102
5786.62373,1.65633608456469,605353.928847494,2636.14075279946,8071.38571796659
5786.63373,1.65872914004652,605658.073030683,2639.94941888972,8075.44097374243
5786.64373,1.6611352346679,605962.191685389,2643.77883741512,8079.49588913852
5786.65372,1.66355436842883,606266.284811615,2647.62900837565,8083.55046415487
5786.66372,1.66598654132932,606570.35240936,2651.49993177132,8087.60469879146
5786.67372,1.66843175336936,606874.394478624,2655.39160760211,8091.65859304832
5786.68372,1.67089000454894,607178.411019407,2659.30403586804,8095.71214692543
5786.69371,1.67336129486808,607482.40203171,2663.2372165691,8099.7653604228
5786.70371,1.67584562432677,607786.367515531,2667.1911497053,8103.81823354042
5786.71371,1.67834299292502,608090.307470872,2671.16583527663,8107.87076627829
5786.72371,1.68085340066281,608394.221897731,2675.16127328308,8111.92295863642
5786.7337,1.68337684754016,608698.11079611,2679.17746372468,8115.97481061481
5786.7437,1.68591333355705,609001.974166009,2683.2144066014,8120.02632221345
5786.7537,1.6884628587135,609305.812007425,2687.27210191327,8124.07749343234
5786.7637,1.6910254230095,609609.624320362,2691.35054966025,8128.12832427149
5786.77369,1.69360102644505,609913.411104818,2695.44974984238,8132.1788147309
5786.78369,1.69618966902016,610217.172360792,2699.56970245964,8136.22896481056
5786.79369,1.69879135073481,610520.908088285,2703.71040751203,8140.27877451047
5786.80369,1.70140607158902,610824.618287298,2707.87186499955,8144.32824383064
5786.81368,1.70403383158277,611128.302957831,2712.05407492221,8148.37737277108
5786.82368,1.70667463071608,611431.962099882,2716.25703728,8152.42616133176
5786.83368,1.70932846898894,611735.595713452,2720.48075207292,8156.47460951269
5786.84367,1.71199534640135,612039.203798542,2724.72521930097,8160.52271731389
5786.85367,1.71467526295332,612342.78635515,2728.99043896416,8164.57048473534
5786.86367,1.71736821864483,612646.343383278,2733.27641106248,8168.61791177704
5786.87367,1.7200742134759,612949.874882924,2737.58313559593,8172.66499843899
5786.88366,1.72279324744652,613253.380854091,2741.91061256452,8176.71174472121
5786.89366,1.72552532055668,613556.861296776,2746.25884196824,8180.75815062367
5786.90366,1.72827043280641,613860.316210979,2750.62782380709,8184.80421614639
5786.91366,1.73102858419568,614163.745596703,2755.01755808107,8188.84994128937
5786.92365,1.7337997747245,614467.149453945,2759.42804479019,8192.8953260526
5786.93365,1.73658400439288,614770.527782706,2763.85928393444,8196.94037043609
5786.94365,1.7393812732008,615073.880582987,2768.31127551382,8200.98507443983
5786.95365,1.74219158114828,615377.207854787,2772.78401952834,8205.02943806383
5786.96364,1.74501492823531,615680.509598106,2777.27751597798,8209.07346130808
5786.97364,1.74785131446189,615983.785812944,2781.79176486277,8213.11714417259
5786.98364,1.75070073982802,616287.036499302,2786.32676618268,8217.16048665736
5786.99364,1.7535632043337,616590.261657178,2790.88251993772,8221.20348876237
5787.00363,1.75643870797894,616893.461286573,2795.4590261279,8225.24615048764
5787.01363,1.75932725076373,617196.635387488,2800.05628475322,8229.28847183317
5787.02363,1.76222883268806,617499.783959921,2804.67429581366,8233.33045279895
5787.03363,1.76514345375195,617802.907003874,2809.31305930924,8237.37209338499
5787.04362,1.7680711139554,618106.004519346,2813.97257523995,8241.41339359128
5787.05362,1.77101181329839,618409.076506337,2818.65284360579,8245.45435341783
5787.06362,1.77396555178093,618712.122964847,2823.35386440677,8249.49497286463
5787.07361,1.77693232940303,619015.143894877,2828.07563764288,8253.53525193169
5787.08361,1.77991214616468,619318.139296425,2832.81816331412,8257.575190619
5787.09361,1.78290500206587,619621.109169493,2837.5814414205,8261.61478892658
5787.10361,1.78591089710662,619924.05351408,2842.365471962,8265.6540468544
5787.1136,1.78892983128692,620226.972330185,2847.17025493864,8269.69296440247
5787.1236,1.79196180460678,620529.865617811,2851.99579035042,8273.73154157081
5787.1336,1.79500681706618,620832.733376955,2856.84207819732,8277.7697783594
5787.1436,1.79806486866514,621135.575607619,2861.70911847936,8281.80767476825
5787.15359,1.80113595940364,621438.392309801,2866.59691119653,8285.84523079735
5787.16359,1.8042200892817,621741.183483502,2871.50545634884,8289.88244644669
5787.17359,1.80731725829931,622043.949128723,2876.43475393627,8293.91932171631
5787.18359,1.81042746645647,622346.689245463,2881.38480395884,8297.95585660618
5787.19358,1.81355071375319,622649.403833722,2886.35560641655,8301.99205111629
5787.20358,1.81668700018945,622952.0928935,2891.34716130938,8306.02790524667
5787.21358,1.81983632576527,623254.756424797,2896.35946863735,8310.0634189973
5787.22358,1.82299869048064,623557.394427614,2901.39252840045,8314.09859236818
5787.23357,1.82617409433555,623860.006901949,2906.44634059868,8318.13342535932
5787.24357,1.82936253733002,624162.593847804,2911.52090523205,8322.16791797072
5787.25357,1.83256401946405,624465.155265177,2916.61622230055,8326.20207020237
5787.26357,1.83577854073762,624767.691154071,2921.73229180419,8330.23588205427
5787.27356,1.83900610115074,625070.201514482,2926.86911374295,8334.26935352643
5787.28356,1.84224670070342,625372.686346413,2932.02668811685,8338.30248461885
5787.29356,1.84550033939565,625675.145649864,2937.20501492588,8342.33527533152
5787.30356,1.84876701722743,625977.579424833,2942.40409417005,8346.36772566444
5787.31355,1.85204673419876,626279.987671321,2947.62392584934,8350.39983561762
5787.32355,1.85533949030964,626582.370389329,2952.86450996377,8354.43160519106
5787.33355,1.85864528556008,626884.727578856,2958.12584651334,8358.46303438475
5787.34354,1.86196411995006,627187.059239902,2963.40793549803,8362.4941231987
5787.35354,1.86529599347959,627489.365372467,2968.71077691785,8366.5248716329
5787.36354,1.86864090614868,627791.645976551,2974.03437077281,8370.55527968735
5787.37354,1.87199885795732,628093.901052155,2979.37871706291,8374.58534736206
5787.38353,1.87536984890551,628396.130599277,2984.74381578814,8378.61507465702
5787.39353,1.87875387899326,628698.334617918,2990.12966694849,8382.64446157224
5787.40353,1.88215094822055,629000.513108079,2995.53627054398,8386.67350810772
5787.41353,1.8855610565874,629302.66606976,3000.96362657461,8390.70221426346
5787.42352,1.88898420409379,629604.793502958,3006.41173504037,8394.73058003944
5787.43352,1.89242039073974,629906.895407676,3011.88059594126,8398.75860543568
5787.44352,1.89586961652524,630208.971783913,3017.37020927728,8402.78629045218
5787.45352,1.89933188145029,630511.02263167,3022.88057504844,8406.81363508894
5787.46351,1.9028071855149,630813.047950945,3028.41169325473,8410.84063934594
5787.47351,1.90629552871905,631115.04774174,3033.96356389615,8414.8673032232
5787.48351,1.90979691106276,631417.022004054,3039.53618697271,8418.89362672072
5787.49351,1.91331133254601,631718.970737886,3045.12956248439,8422.91960983848
5787.5035,1.91683879316882,632020.893943239,3050.74369043121,8426.94525257651
5787.5135,1.92037929293118,632322.79162011,3056.37857081316,8430.9705549348
5787.5235,1.92393283183309,632624.6637685,3062.03420363025,8434.99551691334
5787.5335,1.92749940987456,632926.510388409,3067.71058888247,8439.02013851212
5787.54349,1.93107902705557,633228.331479838,3073.40772656982,8443.04441973117
5787.55349,1.93467168337614,633530.127042785,3079.1256166923,8447.06836057047
5787.56349,1.93827737883625,633831.897077252,3084.86425924992,8451.09196103003
5787.57348,1.94189611343592,634133.641583239,3090.62365424267,8455.11522110985
5787.58348,1.94552788717514,634435.360560744,3096.40380167055,8459.13814080992
5787.59348,1.94917270005391,634737.054009768,3102.20470153357,8463.16072013023
5787.60348,1.95283055207224,635038.72193031,3108.02635383172,8467.18295907081
5787.61347,1.95650144323011,635340.364322373,3113.868758565,8471.20485763164
5787.62347,1.96018537352754,635641.981185955,3119.73191573341,8475.22641581274
5787.63347,1.96388234296452,635943.572521056,3125.61582533696,8479.24763361408
5787.64347,1.96759235154105,636245.138327676,3131.52048737564,8483.26851103567
5787.65346,1.97131539925713,636546.678605815,3137.44590184945,8487.28904807753
5787.66346,1.97505148611276,636848.193355473,3143.39206875839,8491.30924473963
5787.67346,1.97880061210794,637149.68257665,3149.35898810247,8495.329101022
5787.68346,1.98256277724268,637451.146269346,3155.34665988168,8499.34861692462
5787.69345,1.98633798151696,637752.584433562,3161.35508409602,8503.36779244749
5787.70345,1.9901262249308,638053.997069296,3167.3842607455,8507.38662759061
5787.71345,1.99392750748419,638355.38417655,3173.43418983011,8511.405122354
5787.72345,1.99774182917713,638656.745755323,3179.50487134985,8515.42327673764
5787.73344,2.00156919000962,638958.081805615,3185.59630530473,8519.44109074154
5787.74344,2.00540958998167,639259.392327426,3191.70849169474,8523.45856436569
5787.75344,2.00926302909326,639560.677320757,3197.84143051988,8527.4756976101
5787.76344,2.01312950734441,639861.936785607,3203.99512178015,8531.49249047475
5787.77343,2.01700902473511,640163.170721974,3210.16956547555,8535.50894295966
5787.78343,2.02090158126536,640464.379129862,3216.36476160609,8539.52505506483
5787.79343,2.02480717693516,640765.562009269,3222.58071017177,8543.54082679026
5787.80342,2.02872581174451,641066.719360196,3228.81741117257,8547.55625813594
5787.81342,2.03265748569342,641367.85118264,3235.07486460851,8551.57134910187
5787.82342,2.03660219878187,641668.957476605,3241.35307047958,8555.58609968806
5787.83342,2.04055995100988,641970.038242088,3247.65202878578,8559.6005098945
5787.84341,2.04453074237744,642271.09347909,3253.97173952712,8563.6145797212
5787.85341,2.04851457288455,642572.123187612,3260.31220270359,8567.62830916816
5787.86341,2.05251144253121,642873.127367653,3266.67341831518,8571.64169823537
5787.87341,2.05652135131742,643174.106019213,3273.05538636192,8575.65474692284
5787.8834,2.06054429924319,643475.059142291,3279.45810684379,8579.66745523055
5787.8934,2.0645802863085,643775.98673689,3285.88157976079,8583.67982315853
5787.9034,2.06862931251337,644076.888803007,3292.32580511292,8587.69185070676
5787.9134,2.07269137785779,644377.765340643,3298.79078290018,8591.70353787525
5787.92339,2.07676648234176,644678.616349799,3305.27651312259,8595.71488466399
5787.93339,2.08085462596528,644979.441830474,3311.78299578012,8599.72589107298
5787.94339,2.08495580872835,645280.241782667,3318.31023087278,8603.73655710223
5787.95339,2.08907003063098,645581.01620638,3324.85821840058,8607.74688275174
5787.96338,2.09319729167316,645881.765101612,3331.42695836351,8611.75686802149
5787.97338,2.09733759185488,646182.488468364,3338.01645076156,8615.76651291152
5787.98338,2.10149093117616,646483.186306634,3344.62669559476,8619.77581742179
5787.99338,2.10565730963699,646783.858616424,3351.25769286309,8623.78478155231
5788.00337,2.10983672723738,647084.505397732,3357.90944256655,8627.79340530309
5788.01337,2.11402918397731,647385.12665056,3364.58194470515,8631.80168867413
5788.02337,2.11823467985679,647685.722374907,3371.27519927887,8635.80963166542
5788.03337,2.12245321487583,647986.292570773,3377.98920628773,8639.81723427697
5788.04336,2.12668478903442,648286.837238157,3384.72396573172,8643.82449650877
5788.05336,2.13092940233255,648587.356377061,3391.47947761084,8647.83141836082
5788.06336,2.13518705477025,648887.849987485,3398.25574192511,8651.83799983313
5788.07335,2.13945774634749,649188.318069428,3405.05275867449,8655.84424092571
5788.08335,2.14374147706428,649488.76062289,3411.87052785902,8659.85014163853
