Time,Velocity,Pressure,Gamma,Tau
7910.36092,0.953706846839353,488976.068379752,1517.87158935068,6519.68091173003
7910.37092,0.954975461552401,489776.189801977,1519.89065237529,6530.3491973597
7910.38091,0.95629686103083,490574.867533166,1521.9937249632,6540.99823377555
7910.39091,0.957671045274639,491372.101573318,1524.18080711441,6551.62802097758
7910.40091,0.959098014283828,492167.891922434,1526.45189882892,6562.23855896578
7910.41091,0.960577768058397,492962.238580513,1528.80700010674,6572.82984774017
7910.4209,0.962110306598348,493755.141547555,1531.24611094786,6583.40188730074
7910.4309,0.963695629903674,494546.600823562,1533.76923135228,6593.95467764749
7910.4409,0.965333737974384,495336.616408532,1536.37636132,6604.48821878042
7910.4509,0.967024630810473,496125.188302464,1539.06750085102,6615.00251069953
7910.46089,0.968768308411941,496912.316505361,1541.84264994534,6625.49755340482
7910.47089,0.970564770778788,497698.001017221,1544.70180860297,6635.97334689629
7910.48089,0.972414017911018,498482.241838045,1547.64497682389,6646.42989117393
7910.49089,0.974316049808626,499265.038967832,1550.67215460812,6656.86718623776
7910.50088,0.976270866471615,500046.392406583,1553.78334195565,6667.28523208777
7910.51088,0.978278467899982,500826.302154297,1556.97853886648,6677.68402872396
7910.52088,0.98033885409373,501604.768210974,1560.25774534061,6688.06357614632
7910.53088,0.982452025052857,502381.790576615,1563.62096137805,6698.42387435487
7910.54087,0.984617980777364,503157.36925122,1567.06818697878,6708.7649233496
7910.55087,0.986836721267253,503931.504234788,1570.59942214282,6719.08672313051
7910.56087,0.98910824652252,504704.19552732,1574.21466687016,6729.3892736976
7910.57087,0.991432556543168,505475.443128814,1577.9139211608,6739.67257505086
7910.58086,0.993809651329194,506245.247039273,1581.69718501474,6749.9366271903
7910.59086,0.996239530880601,507013.607258695,1585.56445843199,6760.18143011593
7910.60086,0.998722195197388,507780.523787081,1589.51574141253,6770.40698382774
7910.61085,1.00125764427955,508545.996624429,1593.55103395638,6780.61328832572
7910.62085,1.0038458781271,509310.025770742,1597.67033606353,6790.8003436099
7910.63085,1.00648689674003,510072.611226018,1601.87364773398,6800.96814968024
7910.64085,1.00918070011833,510833.752990258,1606.16096896773,6811.11670653677
7910.65084,1.01192728826202,511593.45106346,1610.53229976478,6821.24601417947
7910.66084,1.01472666117109,512351.705445627,1614.98764012513,6831.35607260836
7910.67084,1.01757881884553,513108.516136757,1619.52699004879,6841.44688182343
7910.68084,1.02048376128536,513863.88313685,1624.15034953575,6851.51844182467
7910.69083,1.02344148849057,514617.806445907,1628.85771858601,6861.5707526121
7910.70083,1.02645200046115,515370.286063928,1633.64909719957,6871.60381418571
7910.71083,1.02951529719712,516121.321990912,1638.52448537643,6881.61762654549
7910.72083,1.03263137869846,516870.914226859,1643.48388311659,6891.61218969145
7910.73082,1.03580024496519,517619.06277177,1648.52729042006,6901.5875036236
7910.74082,1.03902189599729,518365.767625644,1653.65470728683,6911.54356834192
7910.75082,1.04229633179478,519111.028788482,1658.86613371689,6921.48038384643
7910.76082,1.04562355235764,519854.846260284,1664.16156971026,6931.39795013712
7910.77081,1.04900355768589,520597.220041048,1669.54101526694,6941.29626721398
7910.78081,1.05243634777952,521338.150130777,1675.00447038691,6951.17533507703
7910.79081,1.05592192263852,522077.636529469,1680.55193507018,6961.03515372625
7910.80081,1.05946028226291,522815.679237124,1686.18340931676,6970.87572316165
7910.8108,1.06305142665267,523552.278253743,1691.89889312664,6980.69704338324
7910.8208,1.06669535580782,524287.433579325,1697.69838649982,6990.499114391
7910.8308,1.07039206972834,525021.145213871,1703.5818894363,7000.28193618495
7910.84079,1.07414156841424,525753.413157381,1709.54940193608,7010.04550876507
7910.85079,1.07794385186553,526484.237409853,1715.60092399917,7019.78983213138
7910.86079,1.08179892008219,527213.617971289,1721.73645562555,7029.51490628386
7910.87079,1.08570677306424,527941.55484169,1727.95599681524,7039.22073122253
7910.88078,1.08966741081166,528668.048021053,1734.25954756823,7048.90730694737
7910.89078,1.09368083332447,529393.097509379,1740.64710788452,7058.57463345839
7910.90078,1.09774704060265,530116.703306669,1747.11867776411,7068.22271075559
7910.91078,1.10186603264621,530838.865412924,1753.674257207,7077.85153883898
7910.92077,1.10603780945516,531559.583828141,1760.3138462132,7087.46111770854
7910.93077,1.11026237102948,532278.858552321,1767.0374447827,7097.05144736429
7910.94077,1.11453971736918,532996.689585466,1773.8450529155,7106.62252780621
7910.95077,1.11886984847427,533713.076927573,1780.73667061159,7116.17435903431
7910.96076,1.12325276434473,534428.020578645,1787.712297871,7125.7069410486
7910.97076,1.12768846498057,535141.520538679,1794.7719346937,7135.22027384906
7910.98076,1.1321769503818,535853.576807678,1801.9155810797,7144.7143574357
7910.99076,1.1367182205484,536564.189385639,1809.14323702901,7154.18919180853
7911.00075,1.14131227548038,537273.358272564,1816.45490254162,7163.64477696752
7911.01075,1.14595911517775,537981.083468453,1823.85057761753,7173.08111291271
7911.02075,1.15065873964049,538687.364973305,1831.33026225674,7182.49819964407
7911.03075,1.15541114886861,539392.202787121,1838.89395645925,7191.89603716161
7911.04074,1.16021634286211,540095.5969099,1846.54166022507,7201.27462546534
7911.05074,1.16507432162099,540797.547341643,1854.27337355418,7210.63396455524
7911.06074,1.16998508514526,541498.054082349,1862.0890964466,7219.97405443132
7911.07074,1.1749486334349,542197.117132018,1869.98882890232,7229.29489509358
7911.08073,1.17996496648992,542894.736490652,1877.97257092134,7238.59648654202
7911.09073,1.18503408431032,543590.912158248,1886.04032250366,7247.87882877664
7911.10073,1.1901559868961,544285.644134808,1894.19208364928,7257.14192179744
7911.11072,1.19533067424727,544978.932420332,1902.42785435821,7266.38576560442
7911.12072,1.20055814636381,545670.777014819,1910.74763463043,7275.61036019758
7911.13072,1.20583840324573,546361.177918269,1919.15142446596,7284.81570557693
7911.14072,1.21117144489303,547050.135130684,1927.63922386479,7294.00180174246
7911.15071,1.21655727130571,547737.648652061,1936.21103282692,7303.16864869415
7911.16071,1.22199588248377,548423.718482402,1944.86685135235,7312.31624643203
7911.17071,1.22748727842721,549108.344621707,1953.60667944109,7321.44459495609
7911.18071,1.23303145913604,549791.527069975,1962.43051709312,7330.55369426633
7911.1907,1.23862842461024,550473.265827206,1971.33836430846,7339.64354436275
7911.2007,1.24427817484982,551153.560893401,1980.3302210871,7348.71414524535
7911.2107,1.24998070985478,551832.41226856,1989.40608742904,7357.76549691413
7911.2207,1.25573602962512,552509.819952682,1998.56596333428,7366.79759936909
7911.23069,1.26154413416084,553185.783945767,2007.80984880283,7375.81045261023
7911.24069,1.26740502346194,553860.304247817,2017.13774383467,7384.80405663755
7911.25069,1.27331869752842,554533.380858829,2026.54964842982,7393.77841145106
7911.26069,1.27928515636028,555205.013778805,2036.04556258827,7402.73351705073
7911.27068,1.28530439995752,555875.203007744,2045.62548631002,7411.66937343659
7911.28068,1.29137642832014,556543.948545647,2055.28941959507,7420.58598060863
7911.29068,1.29750124144814,557211.250392514,2065.03736244342,7429.48333856685
7911.30068,1.30367883934152,557877.108548344,2074.86931485508,7438.36144731125
7911.31067,1.30990922200028,558541.523013138,2084.78527683003,7447.22030684183
7911.32067,1.31619238942442,559204.493786894,2094.78524836829,7456.05991715859
7911.33067,1.32252834161394,559866.020869615,2104.86922946985,7464.88027826153
7911.34066,1.32891707856884,560526.104261299,2115.03722013471,7473.68139015065
7911.35066,1.33535860028912,561184.743961946,2125.28922036287,7482.46325282594
7911.36066,1.34185290677477,561841.939971557,2135.62523015434,7491.22586628743
7911.37066,1.34839999802581,562497.692290131,2146.0452495091,7499.96923053509
7911.38065,1.35499987404223,563152.000917669,2156.54927842717,7508.69334556893
7911.39065,1.36165253482403,563804.865854171,2167.13731690854,7517.39821138894
7911.40065,1.36835798037121,564456.287099635,2177.80936495321,7526.08382799514
7911.41065,1.37511621068377,565106.264654064,2188.56542256118,7534.75019538752
7911.42064,1.38192722576171,565754.798517455,2199.40548973245,7543.39731356607
7911.43064,1.38879102560503,566401.888689811,2210.32956646703,7552.02518253081
7911.44064,1.39570761021372,567047.53517113,2221.33765276491,7560.63380228174
7911.45064,1.4026769795878,567691.737961412,2232.42974862608,7569.22317281883
7911.46063,1.40969913372726,568334.497060658,2243.60585405056,7577.79329414211
7911.47063,1.4167740726321,568975.812468867,2254.86596903834,7586.34416625157
7911.48063,1.42390179630232,569615.68418604,2266.21009358943,7594.8757891472
7911.49063,1.43108230473791,570254.112212177,2277.63822770381,7603.38816282902
7911.50062,1.43831559793889,570891.096547276,2289.1503713815,7611.88128729702
7911.51062,1.44560167590525,571526.637191339,2300.74652462248,7620.35516255119
7911.52062,1.45294053863699,572160.734144366,2312.42668742677,7628.80978859155
7911.53062,1.4603321861341,572793.387406357,2324.19085979436,7637.24516541809
7911.54061,1.4677766183966,573424.59697731,2336.03904172526,7645.66129303081
7911.55061,1.47527383542448,574054.362857228,2347.97123321945,7654.05817142971
7911.56061,1.48282383721774,574682.685046108,2359.98743427695,7662.43580061478
7911.5706,1.49042662377637,575309.563543953,2372.08764489774,7670.79418058604
7911.5806,1.49808219510039,575934.99835076,2384.27186508184,7679.13331134347
7911.5906,1.50579055118979,576558.989466531,2396.54009482924,7687.45319288709
7911.6006,1.51355169204456,577181.536891266,2408.89233413994,7695.75382521688
7911.61059,1.52136561766472,577802.640624965,2421.32858301395,7704.03520833286
7911.62059,1.52923232805026,578422.300667626,2433.84884145125,7712.29734223501
7911.63059,1.53715182320117,579040.517019251,2446.45310945186,7720.54022692335
7911.64059,1.54512410311747,579657.28967984,2459.14138701577,7728.76386239787
7911.65058,1.55314916779914,580272.618649392,2471.91367414297,7736.96824865856
7911.66058,1.5612270172462,580886.503927908,2484.76997083349,7745.15338570544
7911.67058,1.56935765145864,581498.945515387,2497.7102770873,7753.31927353849
7911.68058,1.57754107043645,582109.94341183,2510.73459290441,7761.46591215773
7911.69057,1.58577727417965,582719.497617236,2523.84291828483,7769.59330156315
7911.70057,1.59406626268822,583327.608131606,2537.03525322855,7777.70144175474
7911.71057,1.60240803596218,583934.274954939,2550.31159773556,7785.79033273251
7911.72057,1.61080259400151,584539.498087235,2563.67195180588,7793.85997449647
7911.73056,1.61924993680623,585143.277528495,2577.11631543951,7801.9103670466
7911.74056,1.62775006437633,585745.613278719,2590.64468863643,7809.94151038292
7911.75056,1.6363029767118,586346.505337906,2604.25707139665,7817.95340450541
7911.76056,1.64490867381266,586945.953706057,2617.95346372018,7825.94604941409
7911.77055,1.65356715567889,587543.958383171,2631.73386560701,7833.91944510894
7911.78055,1.6622784223105,588140.519369248,2645.59827705714,7841.87359158997
7911.79055,1.6710424737075,588735.636664289,2659.54669807057,7849.80848885719
7911.80055,1.67985930986987,589329.310268294,2673.5791286473,7857.72413691059
7911.81054,1.68872893079763,589921.540181262,2687.69556878734,7865.62053575016
7911.82054,1.69765133649076,590512.326403193,2701.89601849067,7873.49768537591
7911.83054,1.70662652694928,591101.668934089,2716.18047775731,7881.35558578785
7911.84053,1.71565450217317,591689.567773947,2730.54894658725,7889.19423698595
7911.85053,1.72473526216244,592276.022922768,2745.00142498049,7897.01363897025
7911.86053,1.7338688069171,592861.034380555,2759.53791293703,7904.81379174073
7911.87053,1.74305513643713,593444.602147303,2774.15841045688,7912.59469529738
7911.88052,1.75229425072255,594026.726223016,2788.86291754002,7920.35634964021
7911.89052,1.76158614977334,594607.406607692,2803.65143418647,7928.09875476923
7911.90052,1.77093083358951,595186.643301331,2818.52396039622,7935.82191068442
7911.91052,1.78032830217107,595764.436303935,2833.48049616927,7943.52581738579
7911.92051,1.789778555518,596340.785615501,2848.52104150562,7951.21047487335
7911.93051,1.79928159363031,596915.691236031,2863.64559640527,7958.87588314708
7911.94051,1.80883741650801,597489.153165524,2878.85416086823,7966.52204220699
7911.95051,1.81844602415108,598061.171403981,2894.14673489448,7974.14895205309
7911.9605,1.82810741655953,598631.745951402,2909.52331848404,7981.75661268536
7911.9705,1.83782159373336,599200.876807785,2924.9839116369,7989.3450241038
7911.9805,1.84758855567258,599768.563973133,2940.52851435306,7996.91418630844
7911.9905,1.85740830237717,600334.807447444,2956.15712663252,8004.46409929925
7912.00049,1.86728083384714,600899.607230718,2971.86974847529,8011.99476307624
7912.01049,1.8772061500825,601462.963322956,2987.66637988136,8019.50617763942
7912.02049,1.88718425108323,602024.875724157,3003.54702085072,8026.99834298877
7912.03049,1.89721513684934,602585.344434322,3019.51167138339,8034.4712591243
7912.04048,1.90729880738083,603144.369453451,3035.56033147936,8041.92492604601
7912.05048,1.9174352626777,603701.950781542,3051.69300113863,8049.3593437539
7912.06048,1.92762450273995,604258.088418598,3067.90968036121,8056.77451224797
7912.07047,1.93786652756759,604812.782364617,3084.21036914708,8064.17043152823
7912.08047,1.9481613371606,605366.032619599,3100.59506749626,8071.54710159465
7912.09047,1.95850893151899,605917.839183545,3117.06377540874,8078.90452244727
7912.10047,1.96890931064276,606468.202056454,3133.61649288451,8086.24269408606
7912.11046,1.97936247453191,607017.121238327,3150.2532199236,8093.56161651103
7912.12046,1.98986842318645,607564.596729163,3166.97395652598,8100.86128972218
7912.13046,2.00042715660636,608110.628528963,3183.77870269167,8108.14171371951
7912.14046,2.01103867479165,608655.216637726,3200.66745842065,8115.40288850302
7912.15045,2.02170297774232,609198.361055453,3217.64022371294,8122.64481407271
7912.16045,2.03242006545837,609740.061782143,3234.69699856853,8129.86749042858
7912.17045,2.0431899379398,610280.318817797,3251.83778298742,8137.07091757063
7912.18045,2.05401259518661,610819.132162414,3269.06257696961,8144.25509549886
7912.19044,2.0648880371988,611356.501815995,3286.37138051511,8151.42002421327
7912.20044,2.07581626397637,611892.42777854,3303.7641936239,8158.56570371386
7912.21044,2.08679727551932,612426.910050047,3321.24101629599,8165.69213400063
7912.22044,2.09783107182765,612959.948630518,3338.80184853139,8172.79931507358
7912.23043,2.10891765290136,613491.543519953,3356.4466903301,8179.88724693271
7912.24043,2.12005701874045,614021.694718351,3374.1755416921,8186.95592957801
7912.25043,2.13124916934492,614550.402225713,3391.9884026174,8194.0053630095
7912.26043,2.14249410471477,615077.666042038,3409.88527310601,8201.03554722718
7912.27042,2.15379182485,615603.486167326,3427.86615315791,8208.04648223102
7912.28042,2.16514232975061,616127.862601579,3445.93104277312,8215.03816802106
7912.29042,2.1765456194166,616650.795344795,3464.07994195163,8222.01060459726
7912.30041,2.18800169384797,617172.284396974,3482.31285069344,8228.96379195965
7912.31041,2.19951055304472,617692.329758116,3500.62976899855,8235.89773010822
7912.32041,2.21107219700685,618210.931428223,3519.03069686697,8242.81241904297
7912.33041,2.22268662573436,618728.089407292,3537.51563429869,8249.7078587639
7912.3404,2.23435383922725,619243.803695326,3556.0845812937,8256.58404927101
7912.3504,2.24607383748551,619758.074292322,3574.73753785202,8263.44099056429
7912.3604,2.25784662050916,620270.901198282,3593.47450397364,8270.27868264376
7912.3704,2.26967218829819,620782.284413205,3612.29547965856,8277.09712550941
7912.38039,2.2815505408526,621292.223937093,3631.20046490679,8283.89631916124
7912.39039,2.29348167817239,621800.719769944,3650.18945971831,8290.67626359925
7912.40039,2.30546560025756,622307.771911758,3669.26246409314,8297.43695882344
7912.41039,2.3175023071081,622813.380362535,3688.41947803127,8304.1784048338
7912.42038,2.32959179872403,623317.545122277,3707.6605015327,8310.90060163035
7912.43038,2.34173407510534,623820.266190981,3726.98553459743,8317.60354921308
7912.44038,2.35392913625203,624321.543568649,3746.39457722546,8324.28724758198
7912.45038,2.3661769821641,624821.37725528,3765.8876294168,8330.95169673707
7912.46037,2.37847761284154,625319.767250875,3785.46469117143,8337.59689667833
7912.47037,2.39083102828437,625816.713555434,3805.12576248937,8344.22284740578
7912.48037,2.40323722849258,626312.216168956,3824.87084337061,8350.82954891941
7912.49037,2.41569621346617,626806.275091442,3844.69993381515,8357.41700121922
7912.50036,2.42820798320514,627298.890322891,3864.61303382299,8363.98520430521
7912.51036,2.44077253770948,627790.061863303,3884.61014339414,8370.53415817737
7912.52036,2.45338987697921,628279.789712679,3904.69126252858,8377.06386283572
7912.53036,2.46606000101432,628768.073871018,3924.85639122633,8383.57431828024
7912.54035,2.4787829098148,629254.914338321,3945.10552948738,8390.06552451095
7912.55035,2.49155860338067,629740.311114588,3965.43867731173,8396.53748152784
7912.56035,2.50438708171192,630224.264199818,3985.85583469938,8402.9901893309
7912.57034,2.51726834480855,630706.773594011,4006.35700165034,8409.42364792015
7912.58034,2.53020239267055,631187.839297168,4026.94217816459,8415.83785729557
7912.59034,2.54318922529794,631667.461309288,4047.61136424215,8422.23281745718
7912.60034,2.5562288426907,632145.639630372,4068.364559883,8428.60852840496
7912.61033,2.56932124484885,632622.37426042,4089.20176508716,8434.96499013893
7912.62033,2.58246643177237,633097.66519943,4110.12297985462,8441.30220265907
7912.63033,2.59566440346128,633571.512447405,4131.12820418539,8447.6201659654
7912.64033,2.60891515991557,634043.916004343,4152.21743807945,8453.9188800579
7912.65032,2.62221870113523,634514.875870244,4173.39068153682,8460.19834493659
7912.66032,2.63557502712028,634984.392045109,4194.64793455748,8466.45856060145
7912.67032,2.6489841378707,635452.464528937,4215.98919714145,8472.6995270525
7912.68032,2.66244603338651,635919.093321729,4237.41446928872,8478.92124428973
7912.69031,2.67596071366769,636384.278423485,4258.9237509993,8485.12371231314
7912.70031,2.68952817871426,636848.019834203,4280.51704227317,8491.30693112271
7912.71031,2.7031484285262,637310.317553886,4302.19434311034,8497.47090071848
7912.72031,2.71682146310353,637771.171582532,4323.95565351082,8503.61562110043
7912.7303,2.73054728244624,638230.581920141,4345.8009734746,8509.74109226854
7912.7403,2.74432588655432,638688.548566714,4367.73030300168,8515.84731422285
7912.7503,2.75392844368767,639099.565847281,4383.01324734263,8521.32754463041
7912.7603,2.76779811047172,639555.861914245,4405.08750761981,8527.41149218994
7912.77029,2.78172130414618,640010.722396718,4427.24695858899,8533.4762986229
7912.78029,2.79569802471107,640464.147294697,4449.49160025015,8539.5219639293
7912.79029,2.80972827216639,640916.136608185,4471.82143260331,8545.54848810913
7912.80028,2.82381204651213,641366.69033718,4494.23645564847,8551.5558711624
7912.81028,2.83794934774829,641815.808481682,4516.73666938561,8557.54411308909
7912.82028,2.85214017587488,642263.491041692,4539.32207381475,8563.51321388923
7912.83028,2.86638453089189,642709.73801721,4561.99266893588,8569.4631735628
7912.84027,2.88068241279933,643154.549408235,4584.748454749,8575.3939921098
7912.85027,2.89503382159718,643597.925214768,4607.58943125412,8581.30566953024
7912.86027,2.90943875728547,644039.865436809,4630.51559845123,8587.19820582412
7912.87027,2.92389721986417,644480.370074357,4653.52695634033,8593.07160099142
7912.88026,2.9384092093333,644919.439127413,4676.62350492143,8598.92585503217
7912.89026,2.95297472569286,645357.072595976,4699.80524419452,8604.76096794635
