Time,Velocity,Pressure,Gamma,Tau
8099.34173,0.00118621054435112,531297.692198609,447.190839809308,3541.98461465739
8099.35173,0.00119102347113826,531211.911653636,449.005270461718,3541.41274435757
8099.36172,0.00119586375470074,531127.872867355,450.830014375457,3540.85248578237
8099.37172,0.00120073139503854,531045.575839768,452.665071550525,3540.30383893179
8099.38172,0.00120562639215168,530965.020570872,454.510441986924,3539.76680380582
8099.39171,0.00121054874604016,530886.207060671,456.366125684651,3539.24138040447
8099.40171,0.00121549845670396,530809.135309162,458.232122643708,3538.72756872775
8099.41171,0.0012204755241431,530733.805316345,460.108432864093,3538.22536877564
8099.42171,0.00122547994835757,530660.217082222,461.995056345808,3537.73478054815
8099.4317,0.00123051172934736,530588.370606792,463.89199308885,3537.25580404528
8099.4417,0.0012355708671125,530518.265890055,465.799243093224,3536.78843926703
8099.4517,0.00124065736165296,530449.90293201,467.716806358925,3536.3326862134
8099.4617,0.00124577121296876,530383.281732659,469.644682885957,3535.88854488439
8099.47169,0.00125091242105989,530318.402292,471.582872674317,3535.45601528
8099.48169,0.00125608098592635,530255.264610034,473.531375724006,3535.03509740023
8099.49169,0.00126127690756815,530193.868686761,475.490192035025,3534.62579124508
8099.50169,0.00126650018598527,530134.214522181,477.459321607372,3534.22809681454
8099.51168,0.00127175082117773,530076.302116294,479.438764441048,3533.84201410863
8099.52168,0.00127702881314552,530020.131469101,481.428520536054,3533.46754312734
8099.53168,0.00128233416188864,529965.702580599,483.42858989239,3533.10468387066
8099.54168,0.0012876668674071,529913.015450791,485.438972510054,3532.75343633861
8099.55167,0.00129302692970089,529862.070079676,487.459668389048,3532.41380053117
8099.56167,0.00129841434877,529812.866467253,489.49067752937,3532.08577644835
8099.57167,0.00130382912461445,529765.404613524,491.531999931022,3531.76936409016
8099.58167,0.00130927125723424,529719.684518487,493.583635594003,3531.46456345658
8099.59166,0.00131474074662935,529675.706182143,495.645584518313,3531.17137454762
8099.60166,0.0013202375927998,529633.469604492,497.717846703952,3530.88979736328
8099.61166,0.00132576179574558,529592.974785535,499.80042215092,3530.61983190356
8099.62165,0.00133131335546669,529554.221725269,501.893310859217,3530.36147816846
8099.63165,0.00133689227196314,529517.210423697,503.996512828845,3530.11473615798
8099.64165,0.00134249854523492,529481.940880818,506.1100280598,3529.87960587212
8099.65165,0.00134813217528203,529448.413096632,508.233856552085,3529.65608731088
8099.66164,0.00135379316210447,529416.627071138,510.367998305699,3529.44418047426
8099.67164,0.00135948150570224,529386.582804338,512.512453320643,3529.24388536225
8099.68164,0.00136519720607535,529358.28029623,514.667221596914,3529.05520197487
8099.69164,0.00137094026322379,529331.719546816,516.832303134516,3528.87813031211
8099.70163,0.00137671067714756,529306.900556094,519.007697933447,3528.71267037396
8099.71163,0.00138250844784666,529283.823324065,521.193405993707,3528.55882216043
8099.72163,0.00138833357532109,529262.487850729,523.389427315296,3528.41658567153
8099.73163,0.00139418605957086,529242.894136086,525.595761898214,3528.28596090724
8099.74162,0.00140006590059596,529225.042180136,527.812409742461,3528.16694786758
8099.75162,0.00140597309839639,529208.931982878,530.039370848038,3528.05954655252
8099.76162,0.00141190765297216,529194.563544315,532.276645214944,3527.9637569621
8099.77162,0.00141786956432325,529181.936864443,534.524232843178,3527.87957909629
8099.78161,0.00142385883244968,529171.051943265,536.782133732742,3527.8070129551
8099.79161,0.00142987545735144,529161.908780779,539.050347883636,3527.74605853853
8099.80161,0.00143591943902853,529154.507376987,541.328875295857,3527.69671584658
8099.81161,0.00144199077748096,529148.847731887,543.617715969409,3527.65898487925
8099.8216,0.00144808947270871,529144.92984548,545.916869904289,3527.63286563654
8099.8316,0.0014542155247118,529142.753717766,548.226337100499,3527.61835811844
8099.8416,0.00146036893349022,529142.319348745,550.546117558037,3527.61546232497
8099.8516,0.00146654969904398,529143.626738417,552.876211276905,3527.62417825611
8099.86159,0.00147275782137306,529146.675886782,555.216618257103,3527.64450591188
8099.87159,0.00147899330047748,529151.46679384,557.567338498629,3527.67644529227
8099.88159,0.00148525613635723,529157.99945959,559.928372001484,3527.71999639727
8099.89158,0.00149154632901231,529166.273884034,562.299718765669,3527.77515922689
8099.90158,0.00149786387844273,529176.290067171,564.681378791183,3527.84193378114
8099.91158,0.00150420878464848,529188.048009,567.073352078026,3527.92032006
8099.92158,0.00151058104762955,529201.547709522,569.475638626198,3528.01031806348
8099.93157,0.00151698066738597,529216.789168737,571.888238435699,3528.11192779158
8099.94157,0.00152340764391771,529233.772386645,574.311151506529,3528.2251492443
8099.95157,0.00152986197722479,529252.497363246,576.744377838689,3528.34998242164
8099.96157,0.00153634366730719,529272.96409854,579.187917432177,3528.4864273236
8099.97156,0.00154285271416493,529295.172592527,581.641770286995,3528.63448395018
8099.98156,0.001549389117798,529319.122845207,584.105936403142,3528.79415230138
8099.99156,0.00155595287820641,529344.81485658,586.580415780618,3528.9654323772
8100.00156,0.00156254399539015,529372.248626645,589.065208419423,3529.14832417763
8100.01155,0.00156916246934921,529401.424155404,591.560314319558,3529.34282770269
8100.02155,0.00157580830008362,529432.341442855,594.065733481021,3529.54894295237
8100.03155,0.00158248148759335,529465.000488999,596.581465903813,3529.76666992666
8100.04155,0.00158918203187842,529499.401293836,599.107511587936,3529.99600862557
8100.05154,0.00159590993293881,529535.543857366,601.643870533386,3530.23695904911
8100.06154,0.00160266519077454,529573.428179589,604.190542740166,3530.48952119726
8100.07154,0.0016094478053856,529613.054260505,606.747528208276,3530.75369507003
8100.08154,0.001616257776772,529654.422100114,609.314826937714,3531.02948066743
8100.09153,0.00162309510493373,529697.531698416,611.892438928481,3531.31687798944
8100.10153,0.00162995978987079,529742.38305541,614.480364180579,3531.61588703607
8100.11153,0.00163685183158318,529788.976171098,617.078602694004,3531.92650780732
8100.12152,0.0016437712300709,529837.311045479,619.687154468759,3532.24874030319
8100.13152,0.00165071798533395,529887.387678552,622.306019504843,3532.58258452368
8100.14152,0.00165769209737234,529939.206070318,624.935197802257,3532.92804046879
8100.15152,0.00166469356618606,529992.766220778,627.574689361,3533.28510813852
8100.16151,0.00167172239177512,530048.06812993,630.224494181071,3533.65378753286
8100.17151,0.0016787785741395,530105.111797774,632.884612262472,3534.03407865183
8100.18151,0.00168586211327922,530163.897224312,635.555043605202,3534.42598149542
8100.19151,0.00169297300919426,530224.424409543,638.235788209261,3534.82949606362
8100.2015,0.00170011126188465,530286.693353467,640.926846074649,3535.24462235644
8100.2115,0.00170727687135036,530350.704056084,643.628217201367,3535.67136037389
8100.2215,0.0017144698375914,530416.456517393,646.339901589413,3536.10971011596
8100.2315,0.00172169016060778,530483.950737395,649.061899238789,3536.55967158264
8100.24149,0.00172893784039949,530553.186716091,651.794210149494,3537.02124477394
8100.25149,0.00173621287696653,530624.164453479,654.536834321528,3537.49442968986
8100.26149,0.00174351527030891,530696.88394956,657.289771754891,3537.9792263304
8100.27149,0.00175084502042662,530771.345204334,660.053022449584,3538.47563469556
8100.28148,0.00175820212731965,530847.548217801,662.826586405604,3538.98365478534
8100.29148,0.00176558659098803,530925.492989962,665.610463622955,3539.50328659974
8100.30148,0.00177299841143173,531005.179520815,668.404654101634,3540.03453013876
8100.31148,0.00178043758865076,531086.60781036,671.209157841644,3540.5773854024
8100.32147,0.00178790412264513,531169.777858599,674.023974842982,3541.13185239066
8100.33147,0.00179539801341483,531254.68966553,676.849105105649,3541.69793110354
8100.34147,0.00180291926095986,531341.343231155,679.684548629645,3542.27562154103
8100.35146,0.00181046786528023,531429.738555472,682.530305414971,3542.86492370315
8100.36146,0.00181804382637592,531519.875638482,685.386375461625,3543.46583758988
8100.37146,0.00182564714424695,531611.754480186,688.25275876961,3544.07836320124
8100.38146,0.00183327781889331,531705.375080582,691.129455338922,3544.70250053721
8100.39145,0.00184093585031501,531800.737439671,694.016465169564,3545.3382495978
8100.40145,0.00184862123851203,531897.841557453,696.913788261535,3545.98561038302
8100.41145,0.00185633398348439,531996.687433928,699.821424614836,3546.64458289285
8100.42145,0.00186407408523208,532097.275069095,702.739374229465,3547.3151671273
8100.43144,0.0018718415437551,532199.604462956,705.667637105424,3547.99736308637
8100.44144,0.00187963635905345,532303.67561551,708.606213242712,3548.69117077006
8100.45144,0.00188745853112714,532409.488526756,711.555102641329,3549.39659017837
8100.46144,0.00189530805997616,532517.043196695,714.514305301275,3550.1136213113
8100.47143,0.00190318494560051,532626.339625328,717.483821222551,3550.84226416885
8100.48143,0.00191108918800019,532737.377812653,720.463650405155,3551.58251875102
8100.49143,0.00191902078717521,532850.157758671,723.453792849089,3552.33438505781
8100.50143,0.00192697974312556,532964.679463382,726.454248554351,3553.09786308921
8100.51142,0.00193496605585124,533080.942926786,729.465017520943,3553.87295284524
8100.52142,0.00194297972535225,533198.948148883,732.486099748864,3554.65965432589
8100.53142,0.00195102075162859,533318.695129673,735.517495238115,3555.45796753115
8100.54142,0.00195908913468027,533440.183869155,738.559203988694,3556.26789246103
8100.55141,0.00196718487450728,533563.414367331,741.611226000603,3557.08942911554
8100.56141,0.00197530797110962,533688.386624199,744.67356127384,3557.92257749466
8100.57141,0.00198345842448729,533815.100639761,747.746209808407,3558.76733759841
8100.58141,0.00199163623464029,533943.556414015,750.829171604302,3559.62370942677
8100.5914,0.00199984140156863,534073.753946962,753.922446661528,3560.49169297975
8100.6014,0.0020080739252723,534205.693238603,757.026034980082,3561.37128825735
8100.6114,0.0020163338057513,534339.374288935,760.139936559965,3562.26249525957
8100.62139,0.00202462104300564,534474.797097961,763.264151401178,3563.16531398641
8100.63139,0.0020329356370353,534611.96166568,766.398679503719,3564.07974443787
8100.64139,0.0020412775878403,534750.867992091,769.54352086759,3565.00578661394
8100.65139,0.00204964689542063,534891.516077197,772.69867549279,3565.94344051464
8100.66138,0.0020580435597763,535033.905920994,775.86414337932,3566.89270613996
8100.67138,0.00206646758090729,535178.037523485,779.039924527178,3567.8535834899
8100.68138,0.00207491895881362,535323.910884668,782.226018936366,3568.82607256446
8100.69138,0.00208339769349528,535471.526004545,785.422426606883,3569.81017336363
8100.70137,0.00209190378495227,535620.882883114,788.629147538728,3570.80588588743
8100.71137,0.00210043723318459,535771.981520375,791.846181731903,3571.81321013584
8100.72137,0.00210899803819225,535924.821916331,795.073529186407,3572.83214610887
8100.73137,0.00211758619997524,536079.404070979,798.31118990224,3573.86269380652
8100.74136,0.00212620171853356,536235.72798432,801.559163879403,3574.9048532288
8100.75136,0.00213484459386721,536393.793656354,804.817451117894,3575.95862437569
8100.76136,0.0021435148259762,536553.60108708,808.086051617715,3577.0240072472
8100.77136,0.00215221241486051,536715.1502765,811.364965378865,3578.10100184333
8100.78135,0.00216093736052017,536878.441224613,814.654192401344,3579.18960816408
8100.79135,0.00216968966295515,537043.473931418,817.953732685152,3580.28982620945
8100.80135,0.00217846932216546,537210.248396916,821.26358623029,3581.40165597944
8100.81135,0.00218727633815111,537378.764621107,824.583753036756,3582.52509747405
8100.82134,0.00219611071091208,537549.022603991,827.914233104551,3583.66015069327
8100.83134,0.00220497244044839,537721.022345569,831.255026433676,3584.80681563712
8100.84134,0.00221386152676004,537894.763845838,834.60613302413,3585.96509230559
8100.85133,0.00222277796984701,538070.247104801,837.967552875913,3587.13498069868
8100.86133,0.00223172176970932,538247.472122457,841.339285989025,3588.31648081638
8100.87133,0.00224069292634696,538426.438898805,844.721332363466,3589.5095926587
8100.88133,0.00224969143975993,538607.147433847,848.113691999238,3590.71431622565
8100.89132,0.00225871730994823,538789.597727582,851.516364896337,3591.93065151721
8100.90132,0.00226777053691187,538973.789780009,854.929351054765,3593.15859853339
8100.91132,0.00227685112065084,539159.723591129,858.352650474524,3594.39815727419
8100.92132,0.00228595906116514,539347.399160943,861.786263155611,3595.64932773962
8100.93131,0.00229509435845477,539536.816489448,865.230189098027,3596.91210992966
8100.94131,0.00230425701251974,539727.975576647,868.684428301772,3598.18650384432
8100.95131,0.00231344702336003,539920.876422539,872.148980766847,3599.47250948359
8100.96131,0.00232266439097566,540115.519027125,875.62384649325,3600.7701268475
8100.9713,0.00233190911536662,540311.903390402,879.109025480983,3602.07935593602
8100.9813,0.00234118119653292,540510.029512373,882.604517730046,3603.40019674915
8100.9913,0.00235048063447454,540709.897393037,886.110323240436,3604.73264928691
8101.0013,0.0023598074291915,540911.507032393,889.626442012157,3606.07671354929
8101.01129,0.0023691615806838,541114.858430443,893.152874045207,3607.43238953628
8101.02129,0.00237854308895142,541319.951587185,896.689619339585,3608.7996772479
8101.03129,0.00238795195399437,541526.78650262,900.236677895293,3610.17857668413
8101.04129,0.00239738817581266,541735.363176749,903.79404971233,3611.56908784499
8101.05128,0.00240685175440628,541945.681609569,907.361734790696,3612.97121073046
8101.06128,0.00241634268977523,542157.741801084,910.939733130391,3614.38494534056
8101.07128,0.00242586098191951,542371.54375129,914.528044731415,3615.81029167527
8101.08128,0.00243540663083913,542587.087460189,918.126669593768,3617.2472497346
8101.09127,0.00244497963653408,542804.372927783,921.735607717451,3618.69581951855
8101.10127,0.00245457999900436,543023.400154068,925.354859102464,3620.15600102712
8101.11127,0.00246420771824997,543244.169139046,928.984423748805,3621.62779426031
8101.12126,0.00247386279427091,543466.679882718,932.624301656475,3623.11119921812
8101.13126,0.00248354522706719,543690.932385082,936.274492825474,3624.60621590055
8101.14126,0.0024932550166388,543916.92664614,939.934997255802,3626.1128443076
8101.15126,0.00250299216298574,544144.66266589,943.60581494746,3627.63108443927
8101.16125,0.00251275666610801,544374.140444333,947.286945900446,3629.16093629555
8101.17125,0.00252254852600562,544605.359981469,950.978390114762,3630.70239987646
8101.18125,0.00253236774267856,544838.321277297,954.680147590407,3632.25547518198
8101.19125,0.00254221431612683,545073.02433182,958.392218327382,3633.82016221213
8101.20124,0.00255208824635043,545309.469145034,962.114602325685,3635.39646096689
8101.21124,0.00256198953334937,545547.655716942,965.847299585318,3636.98437144628
8101.22124,0.00257191817712363,545787.584047542,969.590310106279,3638.58389365028
8101.23124,0.00258187417767323,546029.254136836,973.34363388857,3640.19502757891
8101.24123,0.00259185753499816,546272.665984822,977.10727093219,3641.81777323215
8101.25123,0.00260186824909843,546517.819591501,980.881221237139,3643.45213061001
8101.26123,0.00261190631997402,546764.714956874,984.665484803417,3645.09809971249
8101.27123,0.00262197174762495,547013.352080939,988.460061631025,3646.75568053959
8101.28122,0.00263206453205121,547263.730963696,992.26495171996,3648.42487309131
8101.29122,0.0026421846732528,547515.851605147,996.080155070227,3650.10567736765
8101.30122,0.00265233217122973,547769.714005291,999.905671681821,3651.79809336861
8101.31122,0.00266250702598198,548025.318164128,1003.74150155475,3653.50212109419
8101.32121,0.00267270923750957,548282.664081658,1007.587644689,3655.21776054439
8101.33121,0.00268293880581249,548541.75175788,1011.44410108458,3656.9450117192
8101.34121,0.00269319573089075,548802.581192795,1015.31087074149,3658.68387461863
8101.3512,0.00270348001274433,549065.152386403,1019.18795365973,3660.43434924269
8101.3612,0.00271379165137325,549329.465338705,1023.0753498393,3662.19643559137
8101.3712,0.0027241306467775,549595.520049699,1026.9730592802,3663.97013366466
8101.3812,0.00273449699895708,549863.316519386,1030.88108198243,3665.75544346257
8101.39119,0.002744890707912,550132.854747766,1034.79941794599,3667.55236498511
8101.40119,0.00275531177364225,550404.134734839,1038.72806717087,3669.36089823226
8101.41119,0.00276576019614783,550677.156480605,1042.66702965709,3671.18104320403
8101.42119,0.00277623597542874,550951.919985064,1046.61630540463,3673.01279990043
8101.43118,0.00278673911148498,551228.425248215,1050.57589441351,3674.85616832143
8101.44118,0.00279726960431655,551506.672270059,1054.54579668371,3676.71114846706
8101.45118,0.00280782745392346,551786.661050597,1058.52601221524,3678.57774033731
8101.46118,0.0028184126603057,552068.391589828,1062.5165410081,3680.45594393218
8101.47117,0.00282902522346327,552351.863887751,1066.51738306229,3682.34575925167
8101.48117,0.00283966514339618,552637.077944366,1070.52853837781,3684.24718629578
8101.49117,0.00285033242010442,552924.033759676,1074.55000695466,3686.1602250645
8101.50117,0.00286102705358798,553212.731333678,1078.58178879284,3688.08487555785
8101.51116,0.00287174904384689,553503.170666373,1082.62388389235,3690.02113777582
8101.52116,0.00288249839088112,553795.351757761,1086.67629225318,3691.9690117184
8101.53116,0.00289327509469068,554089.274607841,1090.73901387535,3693.92849738561
8101.54116,0.00290407915527558,554384.939216615,1094.81204875884,3695.89959477743
8101.55115,0.00291491057263581,554682.345584081,1098.89539690367,3697.88230389388
8101.56115,0.00292576934677137,554981.493710241,1102.98905830982,3699.87662473494
8101.57115,0.00293665547768227,555282.383595093,1107.0930329773,3701.88255730062
8101.58114,0.0029475689653685,555585.015238638,1111.20732090611,3703.90010159092
8101.59114,0.00295850980983005,555889.388640877,1115.33192209625,3705.92925760584
8101.60114,0.00296947801106694,556195.503801808,1119.46683654772,3707.97002534539
8101.61114,0.00298047356907917,556503.360721432,1123.61206426052,3710.02240480954
8101.62113,0.00299149648386673,556812.959399749,1127.76760523465,3712.08639599833
8101.63113,0.00300254675542961,557124.299836758,1131.9334594701,3714.16199891172
8101.64113,0.00301362438376783,557437.382032461,1136.10962696689,3716.24921354974
8101.65113,0.00302472936888138,557752.205986856,1140.29610772501,3718.34803991238
8101.66112,0.00303586171077027,558068.771699945,1144.49290174445,3720.45847799964
8101.67112,0.00304702140943448,558387.079171726,1148.70000902522,3722.58052781151
8101.68112,0.00305820846487403,558707.128402201,1152.91742956733,3724.71418934801
8101.69112,0.00306942287708891,559028.919391369,1157.14516337076,3726.85946260912
8101.70111,0.00308066464607913,559352.452139228,1161.38321043552,3729.01634759486
8101.71111,0.00309193377184467,559677.726645782,1165.63157076161,3731.18484430521
8101.72111,0.00310323025438555,560004.742911027,1169.89024434903,3733.36495274018
8101.73111,0.00311455409370176,560333.500934966,1174.15923119778,3735.55667289978
8101.7411,0.0031259052897933,560664.000717598,1178.43853130785,3737.76000478399
8101.7511,0.00313728384266018,560996.242258923,1182.72814467926,3739.97494839282
8101.7611,0.00314868975230238,561330.225558941,1187.028071312,3742.20150372627
8101.7711,0.00316012301871992,561665.950617651,1191.33831120606,3744.43967078434
8101.78109,0.00317158364191279,562003.417435055,1195.65886436146,3746.68944956703
